 |--------|------------|
 | ANGLE  |  PHASE FCT |
 |--------|------------|
     0.00   9.7957    
     1.00   9.7848    
     2.00   9.7522    
     3.00   9.6981    
     4.00   9.6232    
     5.00   9.5280    
     6.00   9.4136    
     7.00   9.2809    
     8.00   9.1311    
     9.00   8.9655    
    10.00   8.7855    
    11.00   8.5925    
    12.00   8.3880    
    13.00   8.1734    
    14.00   7.9504    
    15.00   7.7203    
    16.00   7.4845    
    17.00   7.2446    
    18.00   7.0018    
    19.00   6.7573    
    20.00   6.5123    
    21.00   6.2679    
    22.00   6.0251    
    23.00   5.7848    
    24.00   5.5478    
    25.00   5.3147    
    26.00   5.0863    
    27.00   4.8630    
    28.00   4.6454    
    29.00   4.4337    
    30.00   4.2284    
    31.00   4.0296    
    32.00   3.8375    
    33.00   3.6523    
    34.00   3.4741    
    35.00   3.3027    
    36.00   3.1384    
    37.00   2.9809    
    38.00   2.8302    
    39.00   2.6862    
    40.00   2.5487    
    41.00   2.4177    
    42.00   2.2929    
    43.00   2.1742    
    44.00   2.0613    
    45.00   1.9541    
    46.00   1.8523    
    47.00   1.7558    
    48.00   1.6644    
    49.00   1.5777    
    50.00   1.4957    
    51.00   1.4181    
    52.00   1.3447    
    53.00   1.2754    
    54.00   1.2098    
    55.00   1.1479    
    56.00   1.0894    
    57.00   1.0342    
    58.00  0.98209    
    59.00  0.93291    
    60.00  0.88652    
    61.00  0.84275    
    62.00  0.80147    
    63.00  0.76253    
    64.00  0.72581    
    65.00  0.69118    
    66.00  0.65852    
    67.00  0.62772    
    68.00  0.59867    
    69.00  0.57127    
    70.00  0.54544    
    71.00  0.52107    
    72.00  0.49808    
    73.00  0.47639    
    74.00  0.45593    
    75.00  0.43663    
    76.00  0.41841    
    77.00  0.40121    
    78.00  0.38498    
    79.00  0.36965    
    80.00  0.35518    
    81.00  0.34152    
    82.00  0.32861    
    83.00  0.31642    
    84.00  0.30490    
    85.00  0.29402    
    86.00  0.28374    
    87.00  0.27403    
    88.00  0.26484    
    89.00  0.25617    
    90.00  0.24797    
    91.00  0.24021    
    92.00  0.23289    
    93.00  0.22596    
    94.00  0.21942    
    95.00  0.21324    
    96.00  0.20740    
    97.00  0.20188    
    98.00  0.19667    
    99.00  0.19175    
   100.00  0.18711    
   101.00  0.18274    
   102.00  0.17861    
   103.00  0.17472    
   104.00  0.17106    
   105.00  0.16761    
   106.00  0.16438    
   107.00  0.16134    
   108.00  0.15848    
   109.00  0.15581    
   110.00  0.15331    
   111.00  0.15098    
   112.00  0.14880    
   113.00  0.14678    
   114.00  0.14490    
   115.00  0.14316    
   116.00  0.14156    
   117.00  0.14008    
   118.00  0.13873    
   119.00  0.13750    
   120.00  0.13639    
   121.00  0.13538    
   122.00  0.13448    
   123.00  0.13368    
   124.00  0.13298    
   125.00  0.13238    
   126.00  0.13186    
   127.00  0.13144    
   128.00  0.13109    
   129.00  0.13082    
   130.00  0.13063    
   131.00  0.13051    
   132.00  0.13046    
   133.00  0.13048    
   134.00  0.13056    
   135.00  0.13069    
   136.00  0.13088    
   137.00  0.13112    
   138.00  0.13142    
   139.00  0.13176    
   140.00  0.13214    
   141.00  0.13256    
   142.00  0.13303    
   143.00  0.13354    
   144.00  0.13408    
   145.00  0.13467    
   146.00  0.13529    
   147.00  0.13595    
   148.00  0.13666    
   149.00  0.13742    
   150.00  0.13823    
   151.00  0.13909    
   152.00  0.14002    
   153.00  0.14103    
   154.00  0.14211    
   155.00  0.14329    
   156.00  0.14457    
   157.00  0.14596    
   158.00  0.14747    
   159.00  0.14912    
   160.00  0.15091    
   161.00  0.15285    
   162.00  0.15495    
   163.00  0.15720    
   164.00  0.15960    
   165.00  0.16214    
   166.00  0.16482    
   167.00  0.16760    
   168.00  0.17046    
   169.00  0.17337    
   170.00  0.17629    
   171.00  0.17917    
   172.00  0.18195    
   173.00  0.18459    
   174.00  0.18702    
   175.00  0.18919    
   176.00  0.19105    
   177.00  0.19255    
   178.00  0.19366    
   179.00  0.19433    
   180.00  0.19456    
 |--------|------------|
0.670000     micron = Wavelength
 1.91773     = Extinction efficiency (Q)
 1.91773     = Scattering efficiency (Qs)
 0.00000     = Absorption efficiency (Qa)
 64.5895     = Lidar ratio
0.110755     micron^2 = <b> = Average surface area per particle
0.212399     microns^2 = Extinction cross section (C)
0.212399     microns^2 = Scattering cross section (Cs)
 0.00000     microns^2 = Absorption cross section (Ca)
 |----------------------------------------------------|
 | COMMENTAIRES:                                      |
 |----------------------------------------------------|
 |   -Cross section / <b> should = efficiency         |
 |    is independant of the normalisation of dN/dx    |
 |   -The integral of the phase fct / 4 pi over all   |
 |    directions (solid angle) = 1.                   |
 |   -The volume coefficient (k) is equal to C * N    |
 |      = cross section * Number density              |
 |      typical units: [um^2]*[particles/cm^3] =      |
 |      [10^-3 km-1]                                  |
 |      N = M/(d*4/3*pi*r^3) where d is the density   |
 |      of particle, M is the mass per unit volume    |
 |      and 4/3*pi*r^3 is the average volume  of a    |
 |      particle.                                     |
 |      typical units:  M -> [ug/m^3], d -> [g/cm^3]  |
 |                      r -> [um]                     |
 |      Lidar ratio= 4 pi Qe / phase_fct(180)*Qs      |
 |----------------------------------------------------|
