 |--------|------------|
 | ANGLE  |  PHASE FCT |
 |--------|------------|
     0.00   98.532    
     1.00   96.125    
     2.00   89.416    
     3.00   79.710    
     4.00   68.586    
     5.00   57.410    
     6.00   47.099    
     7.00   38.130    
     8.00   30.651    
     9.00   24.605    
    10.00   19.826    
    11.00   16.108    
    12.00   13.246    
    13.00   11.057    
    14.00   9.3839    
    15.00   8.1024    
    16.00   7.1130    
    17.00   6.3400    
    18.00   5.7263    
    19.00   5.2295    
    20.00   4.8184    
    21.00   4.4704    
    22.00   4.1692    
    23.00   3.9034    
    24.00   3.6647    
    25.00   3.4472    
    26.00   3.2468    
    27.00   3.0606    
    28.00   2.8865    
    29.00   2.7231    
    30.00   2.5691    
    31.00   2.4238    
    32.00   2.2867    
    33.00   2.1571    
    34.00   2.0346    
    35.00   1.9189    
    36.00   1.8097    
    37.00   1.7065    
    38.00   1.6092    
    39.00   1.5175    
    40.00   1.4310    
    41.00   1.3495    
    42.00   1.2728    
    43.00   1.2006    
    44.00   1.1327    
    45.00   1.0688    
    46.00   1.0087    
    47.00  0.95214    
    48.00  0.89902    
    49.00  0.84910    
    50.00  0.80218    
    51.00  0.75808    
    52.00  0.71664    
    53.00  0.67770    
    54.00  0.64111    
    55.00  0.60672    
    56.00  0.57441    
    57.00  0.54404    
    58.00  0.51549    
    59.00  0.48866    
    60.00  0.46344    
    61.00  0.43973    
    62.00  0.41743    
    63.00  0.39647    
    64.00  0.37676    
    65.00  0.35822    
    66.00  0.34079    
    67.00  0.32439    
    68.00  0.30897    
    69.00  0.29446    
    70.00  0.28082    
    71.00  0.26798    
    72.00  0.25592    
    73.00  0.24457    
    74.00  0.23389    
    75.00  0.22385    
    76.00  0.21442    
    77.00  0.20555    
    78.00  0.19721    
    79.00  0.18938    
    80.00  0.18202    
    81.00  0.17510    
    82.00  0.16861    
    83.00  0.16252    
    84.00  0.15681    
    85.00  0.15144    
    86.00  0.14642    
    87.00  0.14171    
    88.00  0.13730    
    89.00  0.13317    
    90.00  0.12931    
    91.00  0.12570    
    92.00  0.12233    
    93.00  0.11919    
    94.00  0.11626    
    95.00  0.11354    
    96.00  0.11101    
    97.00  0.10866    
    98.00  0.10648    
    99.00  0.10447    
   100.00  0.10263    
   101.00  0.10093    
   102.00  0.99389E-01
   103.00  0.97987E-01
   104.00  0.96726E-01
   105.00  0.95603E-01
   106.00  0.94615E-01
   107.00  0.93761E-01
   108.00  0.93041E-01
   109.00  0.92457E-01
   110.00  0.92009E-01
   111.00  0.91701E-01
   112.00  0.91537E-01
   113.00  0.91521E-01
   114.00  0.91658E-01
   115.00  0.91957E-01
   116.00  0.92423E-01
   117.00  0.93068E-01
   118.00  0.93901E-01
   119.00  0.94933E-01
   120.00  0.96175E-01
   121.00  0.97642E-01
   122.00  0.99347E-01
   123.00  0.10131    
   124.00  0.10353    
   125.00  0.10605    
   126.00  0.10886    
   127.00  0.11200    
   128.00  0.11546    
   129.00  0.11929    
   130.00  0.12347    
   131.00  0.12803    
   132.00  0.13299    
   133.00  0.13833    
   134.00  0.14407    
   135.00  0.15021    
   136.00  0.15672    
   137.00  0.16360    
   138.00  0.17081    
   139.00  0.17832    
   140.00  0.18608    
   141.00  0.19402    
   142.00  0.20207    
   143.00  0.21016    
   144.00  0.21819    
   145.00  0.22607    
   146.00  0.23369    
   147.00  0.24096    
   148.00  0.24779    
   149.00  0.25411    
   150.00  0.25987    
   151.00  0.26506    
   152.00  0.26972    
   153.00  0.27395    
   154.00  0.27793    
   155.00  0.28189    
   156.00  0.28618    
   157.00  0.29123    
   158.00  0.29750    
   159.00  0.30551    
   160.00  0.31575    
   161.00  0.32856    
   162.00  0.34405    
   163.00  0.36188    
   164.00  0.38112    
   165.00  0.40012    
   166.00  0.41642    
   167.00  0.42701    
   168.00  0.42868    
   169.00  0.41888    
   170.00  0.39683    
   171.00  0.36456    
   172.00  0.32757    
   173.00  0.29449    
   174.00  0.27556    
   175.00  0.27969    
   176.00  0.31096    
   177.00  0.36532    
   178.00  0.42889    
   179.00  0.48061    
   180.00  0.50060    
 |--------|------------|
0.360000     micron = Wavelength
 2.54681     = Extinction efficiency (Q)
 2.54681     = Scattering efficiency (Qs)
 0.00000     = Absorption efficiency (Qa)
 25.1027     = Lidar ratio
0.917782     micron^2 = <b> = Average surface area per particle
 2.33742     microns^2 = Extinction cross section (C)
 2.33742     microns^2 = Scattering cross section (Cs)
0.920863E-15 microns^2 = Absorption cross section (Ca)
 |----------------------------------------------------|
 | COMMENTAIRES:                                      |
 |----------------------------------------------------|
 |   -Cross section / <b> should = efficiency         |
 |    is independant of the normalisation of dN/dx    |
 |   -The integral of the phase fct / 4 pi over all   |
 |    directions (solid angle) = 1.                   |
 |   -The volume coefficient (k) is equal to C * N    |
 |      = cross section * Number density              |
 |      typical units: [um^2]*[particles/cm^3] =      |
 |      [10^-3 km-1]                                  |
 |      N = M/(d*4/3*pi*r^3) where d is the density   |
 |      of particle, M is the mass per unit volume    |
 |      and 4/3*pi*r^3 is the average volume  of a    |
 |      particle.                                     |
 |      typical units:  M -> [ug/m^3], d -> [g/cm^3]  |
 |                      r -> [um]                     |
 |      Lidar ratio= 4 pi Qe / phase_fct(180)*Qs      |
 |----------------------------------------------------|
