 |--------|------------|
 | ANGLE  |  PHASE FCT |
 |--------|------------|
     0.00   67.496    
     1.00   66.447    
     2.00   63.456    
     3.00   58.933    
     4.00   53.422    
     5.00   47.463    
     6.00   41.505    
     7.00   35.868    
     8.00   30.746    
     9.00   26.231    
    10.00   22.340    
    11.00   19.045    
    12.00   16.288    
    13.00   14.000    
    14.00   12.112    
    15.00   10.556    
    16.00   9.2723    
    17.00   8.2107    
    18.00   7.3271    
    19.00   6.5862    
    20.00   5.9595    
    21.00   5.4241    
    22.00   4.9617    
    23.00   4.5584    
    24.00   4.2029    
    25.00   3.8867    
    26.00   3.6030    
    27.00   3.3465    
    28.00   3.1132    
    29.00   2.8998    
    30.00   2.7039    
    31.00   2.5233    
    32.00   2.3564    
    33.00   2.2018    
    34.00   2.0583    
    35.00   1.9251    
    36.00   1.8012    
    37.00   1.6859    
    38.00   1.5786    
    39.00   1.4786    
    40.00   1.3856    
    41.00   1.2988    
    42.00   1.2180    
    43.00   1.1426    
    44.00   1.0724    
    45.00   1.0069    
    46.00  0.94586    
    47.00  0.88892    
    48.00  0.83582    
    49.00  0.78628    
    50.00  0.74006    
    51.00  0.69692    
    52.00  0.65666    
    53.00  0.61906    
    54.00  0.58395    
    55.00  0.55115    
    56.00  0.52050    
    57.00  0.49186    
    58.00  0.46508    
    59.00  0.44004    
    60.00  0.41661    
    61.00  0.39468    
    62.00  0.37416    
    63.00  0.35495    
    64.00  0.33696    
    65.00  0.32011    
    66.00  0.30431    
    67.00  0.28951    
    68.00  0.27564    
    69.00  0.26263    
    70.00  0.25044    
    71.00  0.23900    
    72.00  0.22827    
    73.00  0.21820    
    74.00  0.20876    
    75.00  0.19990    
    76.00  0.19158    
    77.00  0.18378    
    78.00  0.17646    
    79.00  0.16959    
    80.00  0.16315    
    81.00  0.15711    
    82.00  0.15145    
    83.00  0.14614    
    84.00  0.14116    
    85.00  0.13650    
    86.00  0.13214    
    87.00  0.12806    
    88.00  0.12424    
    89.00  0.12067    
    90.00  0.11734    
    91.00  0.11423    
    92.00  0.11133    
    93.00  0.10864    
    94.00  0.10614    
    95.00  0.10382    
    96.00  0.10168    
    97.00  0.99705E-01
    98.00  0.97889E-01
    99.00  0.96227E-01
   100.00  0.94713E-01
   101.00  0.93342E-01
   102.00  0.92111E-01
   103.00  0.91014E-01
   104.00  0.90050E-01
   105.00  0.89215E-01
   106.00  0.88508E-01
   107.00  0.87927E-01
   108.00  0.87472E-01
   109.00  0.87142E-01
   110.00  0.86939E-01
   111.00  0.86863E-01
   112.00  0.86915E-01
   113.00  0.87098E-01
   114.00  0.87415E-01
   115.00  0.87868E-01
   116.00  0.88461E-01
   117.00  0.89199E-01
   118.00  0.90086E-01
   119.00  0.91127E-01
   120.00  0.92327E-01
   121.00  0.93692E-01
   122.00  0.95228E-01
   123.00  0.96941E-01
   124.00  0.98835E-01
   125.00  0.10092    
   126.00  0.10319    
   127.00  0.10567    
   128.00  0.10834    
   129.00  0.11122    
   130.00  0.11431    
   131.00  0.11760    
   132.00  0.12109    
   133.00  0.12478    
   134.00  0.12866    
   135.00  0.13273    
   136.00  0.13696    
   137.00  0.14133    
   138.00  0.14584    
   139.00  0.15044    
   140.00  0.15512    
   141.00  0.15984    
   142.00  0.16457    
   143.00  0.16926    
   144.00  0.17390    
   145.00  0.17843    
   146.00  0.18284    
   147.00  0.18709    
   148.00  0.19119    
   149.00  0.19512    
   150.00  0.19891    
   151.00  0.20261    
   152.00  0.20627    
   153.00  0.21000    
   154.00  0.21391    
   155.00  0.21815    
   156.00  0.22288    
   157.00  0.22828    
   158.00  0.23451    
   159.00  0.24169    
   160.00  0.24983    
   161.00  0.25883    
   162.00  0.26837    
   163.00  0.27786    
   164.00  0.28642    
   165.00  0.29285    
   166.00  0.29572    
   167.00  0.29355    
   168.00  0.28516    
   169.00  0.27007    
   170.00  0.24899    
   171.00  0.22419    
   172.00  0.19952    
   173.00  0.17999    
   174.00  0.17064    
   175.00  0.17497    
   176.00  0.19340    
   177.00  0.22215    
   178.00  0.25353    
   179.00  0.27790    
   180.00  0.28709    
 |--------|------------|
0.580000     micron = Wavelength
 2.81327     = Extinction efficiency (Q)
 2.81327     = Scattering efficiency (Qs)
 0.00000     = Absorption efficiency (Qa)
 43.7717     = Lidar ratio
 1.56997     micron^2 = <b> = Average surface area per particle
 4.41676     microns^2 = Extinction cross section (C)
 4.41676     microns^2 = Scattering cross section (Cs)
 0.00000     microns^2 = Absorption cross section (Ca)
 |----------------------------------------------------|
 | COMMENTAIRES:                                      |
 |----------------------------------------------------|
 |   -Cross section / <b> should = efficiency         |
 |    is independant of the normalisation of dN/dx    |
 |   -The integral of the phase fct / 4 pi over all   |
 |    directions (solid angle) = 1.                   |
 |   -The volume coefficient (k) is equal to C * N    |
 |      = cross section * Number density              |
 |      typical units: [um^2]*[particles/cm^3] =      |
 |      [10^-3 km-1]                                  |
 |      N = M/(d*4/3*pi*r^3) where d is the density   |
 |      of particle, M is the mass per unit volume    |
 |      and 4/3*pi*r^3 is the average volume  of a    |
 |      particle.                                     |
 |      typical units:  M -> [ug/m^3], d -> [g/cm^3]  |
 |                      r -> [um]                     |
 |      Lidar ratio= 4 pi Qe / phase_fct(180)*Qs      |
 |----------------------------------------------------|
