 |--------|------------|
 | ANGLE  |  PHASE FCT |
 |--------|------------|
     0.00   39.338    
     1.00   39.080    
     2.00   38.324    
     3.00   37.118    
     4.00   35.533    
     5.00   33.653    
     6.00   31.568    
     7.00   29.362    
     8.00   27.109    
     9.00   24.871    
    10.00   22.697    
    11.00   20.621    
    12.00   18.669    
    13.00   16.855    
    14.00   15.186    
    15.00   13.661    
    16.00   12.279    
    17.00   11.032    
    18.00   9.9112    
    19.00   8.9078    
    20.00   8.0115    
    21.00   7.2124    
    22.00   6.5006    
    23.00   5.8672    
    24.00   5.3035    
    25.00   4.8017    
    26.00   4.3549    
    27.00   3.9565    
    28.00   3.6011    
    29.00   3.2835    
    30.00   2.9992    
    31.00   2.7444    
    32.00   2.5156    
    33.00   2.3098    
    34.00   2.1244    
    35.00   1.9569    
    36.00   1.8054    
    37.00   1.6681    
    38.00   1.5435    
    39.00   1.4301    
    40.00   1.3269    
    41.00   1.2326    
    42.00   1.1464    
    43.00   1.0676    
    44.00  0.99523    
    45.00  0.92882    
    46.00  0.86777    
    47.00  0.81157    
    48.00  0.75977    
    49.00  0.71197    
    50.00  0.66782    
    51.00  0.62699    
    52.00  0.58920    
    53.00  0.55419    
    54.00  0.52171    
    55.00  0.49158    
    56.00  0.46359    
    57.00  0.43757    
    58.00  0.41336    
    59.00  0.39082    
    60.00  0.36983    
    61.00  0.35026    
    62.00  0.33201    
    63.00  0.31497    
    64.00  0.29907    
    65.00  0.28420    
    66.00  0.27031    
    67.00  0.25732    
    68.00  0.24516    
    69.00  0.23378    
    70.00  0.22312    
    71.00  0.21314    
    72.00  0.20378    
    73.00  0.19501    
    74.00  0.18678    
    75.00  0.17906    
    76.00  0.17182    
    77.00  0.16502    
    78.00  0.15864    
    79.00  0.15265    
    80.00  0.14702    
    81.00  0.14173    
    82.00  0.13677    
    83.00  0.13211    
    84.00  0.12773    
    85.00  0.12361    
    86.00  0.11975    
    87.00  0.11612    
    88.00  0.11272    
    89.00  0.10953    
    90.00  0.10653    
    91.00  0.10373    
    92.00  0.10110    
    93.00  0.98637E-01
    94.00  0.96338E-01
    95.00  0.94191E-01
    96.00  0.92190E-01
    97.00  0.90328E-01
    98.00  0.88599E-01
    99.00  0.86997E-01
   100.00  0.85517E-01
   101.00  0.84154E-01
   102.00  0.82905E-01
   103.00  0.81765E-01
   104.00  0.80731E-01
   105.00  0.79800E-01
   106.00  0.78970E-01
   107.00  0.78237E-01
   108.00  0.77601E-01
   109.00  0.77059E-01
   110.00  0.76609E-01
   111.00  0.76251E-01
   112.00  0.75984E-01
   113.00  0.75808E-01
   114.00  0.75721E-01
   115.00  0.75723E-01
   116.00  0.75816E-01
   117.00  0.75998E-01
   118.00  0.76271E-01
   119.00  0.76635E-01
   120.00  0.77090E-01
   121.00  0.77639E-01
   122.00  0.78281E-01
   123.00  0.79018E-01
   124.00  0.79852E-01
   125.00  0.80782E-01
   126.00  0.81811E-01
   127.00  0.82941E-01
   128.00  0.84171E-01
   129.00  0.85504E-01
   130.00  0.86940E-01
   131.00  0.88480E-01
   132.00  0.90125E-01
   133.00  0.91876E-01
   134.00  0.93732E-01
   135.00  0.95694E-01
   136.00  0.97762E-01
   137.00  0.99935E-01
   138.00  0.10221    
   139.00  0.10459    
   140.00  0.10708    
   141.00  0.10966    
   142.00  0.11235    
   143.00  0.11513    
   144.00  0.11801    
   145.00  0.12099    
   146.00  0.12406    
   147.00  0.12722    
   148.00  0.13048    
   149.00  0.13382    
   150.00  0.13723    
   151.00  0.14072    
   152.00  0.14427    
   153.00  0.14785    
   154.00  0.15144    
   155.00  0.15499    
   156.00  0.15845    
   157.00  0.16171    
   158.00  0.16469    
   159.00  0.16722    
   160.00  0.16915    
   161.00  0.17028    
   162.00  0.17037    
   163.00  0.16920    
   164.00  0.16656    
   165.00  0.16230    
   166.00  0.15636    
   167.00  0.14885    
   168.00  0.14008    
   169.00  0.13059    
   170.00  0.12115    
   171.00  0.11271    
   172.00  0.10628    
   173.00  0.10272    
   174.00  0.10256    
   175.00  0.10577    
   176.00  0.11169    
   177.00  0.11902    
   178.00  0.12608    
   179.00  0.13117    
   180.00  0.13302    
 |--------|------------|
0.660000     micron = Wavelength
 3.12209     = Extinction efficiency (Q)
 3.12209     = Scattering efficiency (Qs)
 0.00000     = Absorption efficiency (Qa)
 94.4723     = Lidar ratio
0.917851     micron^2 = <b> = Average surface area per particle
 2.86561     microns^2 = Extinction cross section (C)
 2.86561     microns^2 = Scattering cross section (Cs)
 0.00000     microns^2 = Absorption cross section (Ca)
 |----------------------------------------------------|
 | COMMENTAIRES:                                      |
 |----------------------------------------------------|
 |   -Cross section / <b> should = efficiency         |
 |    is independant of the normalisation of dN/dx    |
 |   -The integral of the phase fct / 4 pi over all   |
 |    directions (solid angle) = 1.                   |
 |   -The volume coefficient (k) is equal to C * N    |
 |      = cross section * Number density              |
 |      typical units: [um^2]*[particles/cm^3] =      |
 |      [10^-3 km-1]                                  |
 |      N = M/(d*4/3*pi*r^3) where d is the density   |
 |      of particle, M is the mass per unit volume    |
 |      and 4/3*pi*r^3 is the average volume  of a    |
 |      particle.                                     |
 |      typical units:  M -> [ug/m^3], d -> [g/cm^3]  |
 |                      r -> [um]                     |
 |      Lidar ratio= 4 pi Qe / phase_fct(180)*Qs      |
 |----------------------------------------------------|
