 |--------|------------|
 | ANGLE  |  PHASE FCT |
 |--------|------------|
     0.00   14.260    
     1.00   14.233    
     2.00   14.153    
     3.00   14.021    
     4.00   13.840    
     5.00   13.613    
     6.00   13.343    
     7.00   13.034    
     8.00   12.691    
     9.00   12.319    
    10.00   11.922    
    11.00   11.505    
    12.00   11.073    
    13.00   10.630    
    14.00   10.181    
    15.00   9.7288    
    16.00   9.2773    
    17.00   8.8295    
    18.00   8.3881    
    19.00   7.9555    
    20.00   7.5335    
    21.00   7.1238    
    22.00   6.7276    
    23.00   6.3461    
    24.00   5.9798    
    25.00   5.6294    
    26.00   5.2950    
    27.00   4.9769    
    28.00   4.6749    
    29.00   4.3888    
    30.00   4.1183    
    31.00   3.8631    
    32.00   3.6227    
    33.00   3.3966    
    34.00   3.1842    
    35.00   2.9849    
    36.00   2.7981    
    37.00   2.6232    
    38.00   2.4596    
    39.00   2.3066    
    40.00   2.1637    
    41.00   2.0303    
    42.00   1.9058    
    43.00   1.7896    
    44.00   1.6812    
    45.00   1.5802    
    46.00   1.4859    
    47.00   1.3981    
    48.00   1.3162    
    49.00   1.2399    
    50.00   1.1687    
    51.00   1.1024    
    52.00   1.0405    
    53.00  0.98271    
    54.00  0.92883    
    55.00  0.87853    
    56.00  0.83157    
    57.00  0.78770    
    58.00  0.74671    
    59.00  0.70839    
    60.00  0.67256    
    61.00  0.63902    
    62.00  0.60764    
    63.00  0.57824    
    64.00  0.55069    
    65.00  0.52487    
    66.00  0.50065    
    67.00  0.47792    
    68.00  0.45657    
    69.00  0.43653    
    70.00  0.41768    
    71.00  0.39997    
    72.00  0.38330    
    73.00  0.36761    
    74.00  0.35284    
    75.00  0.33892    
    76.00  0.32580    
    77.00  0.31344    
    78.00  0.30178    
    79.00  0.29077    
    80.00  0.28039    
    81.00  0.27058    
    82.00  0.26132    
    83.00  0.25258    
    84.00  0.24431    
    85.00  0.23651    
    86.00  0.22913    
    87.00  0.22216    
    88.00  0.21557    
    89.00  0.20935    
    90.00  0.20347    
    91.00  0.19791    
    92.00  0.19266    
    93.00  0.18771    
    94.00  0.18304    
    95.00  0.17863    
    96.00  0.17448    
    97.00  0.17057    
    98.00  0.16690    
    99.00  0.16345    
   100.00  0.16021    
   101.00  0.15717    
   102.00  0.15434    
   103.00  0.15169    
   104.00  0.14923    
   105.00  0.14695    
   106.00  0.14485    
   107.00  0.14291    
   108.00  0.14113    
   109.00  0.13952    
   110.00  0.13806    
   111.00  0.13675    
   112.00  0.13560    
   113.00  0.13459    
   114.00  0.13373    
   115.00  0.13301    
   116.00  0.13244    
   117.00  0.13200    
   118.00  0.13170    
   119.00  0.13155    
   120.00  0.13153    
   121.00  0.13164    
   122.00  0.13189    
   123.00  0.13227    
   124.00  0.13279    
   125.00  0.13344    
   126.00  0.13421    
   127.00  0.13512    
   128.00  0.13615    
   129.00  0.13731    
   130.00  0.13859    
   131.00  0.13998    
   132.00  0.14149    
   133.00  0.14310    
   134.00  0.14481    
   135.00  0.14662    
   136.00  0.14850    
   137.00  0.15046    
   138.00  0.15249    
   139.00  0.15456    
   140.00  0.15666    
   141.00  0.15878    
   142.00  0.16090    
   143.00  0.16300    
   144.00  0.16506    
   145.00  0.16705    
   146.00  0.16897    
   147.00  0.17078    
   148.00  0.17246    
   149.00  0.17400    
   150.00  0.17539    
   151.00  0.17660    
   152.00  0.17765    
   153.00  0.17852    
   154.00  0.17924    
   155.00  0.17983    
   156.00  0.18032    
   157.00  0.18075    
   158.00  0.18120    
   159.00  0.18174    
   160.00  0.18246    
   161.00  0.18345    
   162.00  0.18483    
   163.00  0.18670    
   164.00  0.18917    
   165.00  0.19234    
   166.00  0.19627    
   167.00  0.20101    
   168.00  0.20657    
   169.00  0.21291    
   170.00  0.21994    
   171.00  0.22752    
   172.00  0.23545    
   173.00  0.24348    
   174.00  0.25134    
   175.00  0.25871    
   176.00  0.26528    
   177.00  0.27075    
   178.00  0.27486    
   179.00  0.27742    
   180.00  0.27829    
 |--------|------------|
0.460000     micron = Wavelength
 2.95362     = Extinction efficiency (Q)
 2.95362     = Scattering efficiency (Qs)
 0.00000     = Absorption efficiency (Qa)
 45.1564     = Lidar ratio
0.110755     micron^2 = <b> = Average surface area per particle
0.327128     microns^2 = Extinction cross section (C)
0.327128     microns^2 = Scattering cross section (Cs)
 0.00000     microns^2 = Absorption cross section (Ca)
 |----------------------------------------------------|
 | COMMENTAIRES:                                      |
 |----------------------------------------------------|
 |   -Cross section / <b> should = efficiency         |
 |    is independant of the normalisation of dN/dx    |
 |   -The integral of the phase fct / 4 pi over all   |
 |    directions (solid angle) = 1.                   |
 |   -The volume coefficient (k) is equal to C * N    |
 |      = cross section * Number density              |
 |      typical units: [um^2]*[particles/cm^3] =      |
 |      [10^-3 km-1]                                  |
 |      N = M/(d*4/3*pi*r^3) where d is the density   |
 |      of particle, M is the mass per unit volume    |
 |      and 4/3*pi*r^3 is the average volume  of a    |
 |      particle.                                     |
 |      typical units:  M -> [ug/m^3], d -> [g/cm^3]  |
 |                      r -> [um]                     |
 |      Lidar ratio= 4 pi Qe / phase_fct(180)*Qs      |
 |----------------------------------------------------|
