 |--------|------------|
 | ANGLE  |  PHASE FCT |
 |--------|------------|
     0.00   107.59    
     1.00   104.73    
     2.00   96.792    
     3.00   85.438    
     4.00   72.625    
     5.00   59.984    
     6.00   48.549    
     7.00   38.797    
     8.00   30.823    
     9.00   24.500    
    10.00   19.593    
    11.00   15.843    
    12.00   13.002    
    13.00   10.860    
    14.00   9.2418    
    15.00   8.0131    
    16.00   7.0693    
    17.00   6.3325    
    18.00   5.7454    
    19.00   5.2665    
    20.00   4.8664    
    21.00   4.5237    
    22.00   4.2236    
    23.00   3.9556    
    24.00   3.7125    
    25.00   3.4893    
    26.00   3.2824    
    27.00   3.0893    
    28.00   2.9083    
    29.00   2.7381    
    30.00   2.5778    
    31.00   2.4267    
    32.00   2.2842    
    33.00   2.1498    
    34.00   2.0231    
    35.00   1.9036    
    36.00   1.7911    
    37.00   1.6852    
    38.00   1.5856    
    39.00   1.4919    
    40.00   1.4039    
    41.00   1.3211    
    42.00   1.2435    
    43.00   1.1705    
    44.00   1.1021    
    45.00   1.0379    
    46.00  0.97770    
    47.00  0.92122    
    48.00  0.86826    
    49.00  0.81860    
    50.00  0.77204    
    51.00  0.72837    
    52.00  0.68744    
    53.00  0.64905    
    54.00  0.61305    
    55.00  0.57929    
    56.00  0.54762    
    57.00  0.51792    
    58.00  0.49005    
    59.00  0.46390    
    60.00  0.43935    
    61.00  0.41632    
    62.00  0.39469    
    63.00  0.37438    
    64.00  0.35532    
    65.00  0.33741    
    66.00  0.32059    
    67.00  0.30479    
    68.00  0.28994    
    69.00  0.27600    
    70.00  0.26289    
    71.00  0.25058    
    72.00  0.23901    
    73.00  0.22814    
    74.00  0.21793    
    75.00  0.20833    
    76.00  0.19932    
    77.00  0.19086    
    78.00  0.18292    
    79.00  0.17546    
    80.00  0.16846    
    81.00  0.16190    
    82.00  0.15575    
    83.00  0.14999    
    84.00  0.14459    
    85.00  0.13954    
    86.00  0.13481    
    87.00  0.13040    
    88.00  0.12628    
    89.00  0.12244    
    90.00  0.11886    
    91.00  0.11553    
    92.00  0.11244    
    93.00  0.10957    
    94.00  0.10692    
    95.00  0.10447    
    96.00  0.10221    
    97.00  0.10014    
    98.00  0.98247E-01
    99.00  0.96522E-01
   100.00  0.94961E-01
   101.00  0.93555E-01
   102.00  0.92301E-01
   103.00  0.91194E-01
   104.00  0.90230E-01
   105.00  0.89405E-01
   106.00  0.88719E-01
   107.00  0.88171E-01
   108.00  0.87760E-01
   109.00  0.87487E-01
   110.00  0.87353E-01
   111.00  0.87362E-01
   112.00  0.87516E-01
   113.00  0.87822E-01
   114.00  0.88285E-01
   115.00  0.88912E-01
   116.00  0.89711E-01
   117.00  0.90691E-01
   118.00  0.91863E-01
   119.00  0.93238E-01
   120.00  0.94828E-01
   121.00  0.96647E-01
   122.00  0.98707E-01
   123.00  0.10102    
   124.00  0.10361    
   125.00  0.10649    
   126.00  0.10966    
   127.00  0.11315    
   128.00  0.11697    
   129.00  0.12112    
   130.00  0.12562    
   131.00  0.13047    
   132.00  0.13567    
   133.00  0.14122    
   134.00  0.14710    
   135.00  0.15329    
   136.00  0.15977    
   137.00  0.16649    
   138.00  0.17340    
   139.00  0.18046    
   140.00  0.18758    
   141.00  0.19468    
   142.00  0.20167    
   143.00  0.20846    
   144.00  0.21495    
   145.00  0.22102    
   146.00  0.22659    
   147.00  0.23157    
   148.00  0.23590    
   149.00  0.23952    
   150.00  0.24245    
   151.00  0.24471    
   152.00  0.24640    
   153.00  0.24767    
   154.00  0.24873    
   155.00  0.24987    
   156.00  0.25147    
   157.00  0.25395    
   158.00  0.25782    
   159.00  0.26364    
   160.00  0.27198    
   161.00  0.28334    
   162.00  0.29803    
   163.00  0.31602    
   164.00  0.33677    
   165.00  0.35894    
   166.00  0.38032    
   167.00  0.39782    
   168.00  0.40779    
   169.00  0.40672    
   170.00  0.39250    
   171.00  0.36569    
   172.00  0.33070    
   173.00  0.29595    
   174.00  0.27253    
   175.00  0.27110    
   176.00  0.29779    
   177.00  0.35008    
   178.00  0.41425    
   179.00  0.46781    
   180.00  0.48875    
 |--------|------------|
0.560000     micron = Wavelength
 2.53160     = Extinction efficiency (Q)
 2.53160     = Scattering efficiency (Qs)
 0.00000     = Absorption efficiency (Qa)
 25.7113     = Lidar ratio
 2.43654     micron^2 = <b> = Average surface area per particle
 6.16835     microns^2 = Extinction cross section (C)
 6.16835     microns^2 = Scattering cross section (Cs)
0.222826E-14 microns^2 = Absorption cross section (Ca)
 |----------------------------------------------------|
 | COMMENTAIRES:                                      |
 |----------------------------------------------------|
 |   -Cross section / <b> should = efficiency         |
 |    is independant of the normalisation of dN/dx    |
 |   -The integral of the phase fct / 4 pi over all   |
 |    directions (solid angle) = 1.                   |
 |   -The volume coefficient (k) is equal to C * N    |
 |      = cross section * Number density              |
 |      typical units: [um^2]*[particles/cm^3] =      |
 |      [10^-3 km-1]                                  |
 |      N = M/(d*4/3*pi*r^3) where d is the density   |
 |      of particle, M is the mass per unit volume    |
 |      and 4/3*pi*r^3 is the average volume  of a    |
 |      particle.                                     |
 |      typical units:  M -> [ug/m^3], d -> [g/cm^3]  |
 |                      r -> [um]                     |
 |      Lidar ratio= 4 pi Qe / phase_fct(180)*Qs      |
 |----------------------------------------------------|
