 |--------|------------|
 | ANGLE  |  PHASE FCT |
 |--------|------------|
     0.00   28.548    
     1.00   28.437    
     2.00   28.107    
     3.00   27.571    
     4.00   26.847    
     5.00   25.959    
     6.00   24.934    
     7.00   23.801    
     8.00   22.587    
     9.00   21.321    
    10.00   20.027    
    11.00   18.728    
    12.00   17.443    
    13.00   16.186    
    14.00   14.971    
    15.00   13.808    
    16.00   12.703    
    17.00   11.660    
    18.00   10.683    
    19.00   9.7723    
    20.00   8.9272    
    21.00   8.1464    
    22.00   7.4279    
    23.00   6.7687    
    24.00   6.1656    
    25.00   5.6152    
    26.00   5.1138    
    27.00   4.6580    
    28.00   4.2441    
    29.00   3.8687    
    30.00   3.5286    
    31.00   3.2207    
    32.00   2.9420    
    33.00   2.6898    
    34.00   2.4617    
    35.00   2.2553    
    36.00   2.0685    
    37.00   1.8994    
    38.00   1.7462    
    39.00   1.6074    
    40.00   1.4815    
    41.00   1.3673    
    42.00   1.2634    
    43.00   1.1690    
    44.00   1.0831    
    45.00   1.0048    
    46.00  0.93342    
    47.00  0.86821    
    48.00  0.80858    
    49.00  0.75401    
    50.00  0.70400    
    51.00  0.65811    
    52.00  0.61597    
    53.00  0.57721    
    54.00  0.54153    
    55.00  0.50863    
    56.00  0.47828    
    57.00  0.45024    
    58.00  0.42431    
    59.00  0.40030    
    60.00  0.37805    
    61.00  0.35741    
    62.00  0.33825    
    63.00  0.32043    
    64.00  0.30386    
    65.00  0.28843    
    66.00  0.27405    
    67.00  0.26064    
    68.00  0.24813    
    69.00  0.23644    
    70.00  0.22551    
    71.00  0.21529    
    72.00  0.20573    
    73.00  0.19677    
    74.00  0.18838    
    75.00  0.18051    
    76.00  0.17313    
    77.00  0.16620    
    78.00  0.15969    
    79.00  0.15359    
    80.00  0.14785    
    81.00  0.14245    
    82.00  0.13738    
    83.00  0.13261    
    84.00  0.12813    
    85.00  0.12391    
    86.00  0.11994    
    87.00  0.11621    
    88.00  0.11270    
    89.00  0.10939    
    90.00  0.10629    
    91.00  0.10337    
    92.00  0.10062    
    93.00  0.98042E-01
    94.00  0.95621E-01
    95.00  0.93350E-01
    96.00  0.91221E-01
    97.00  0.89227E-01
    98.00  0.87362E-01
    99.00  0.85620E-01
   100.00  0.83995E-01
   101.00  0.82483E-01
   102.00  0.81080E-01
   103.00  0.79780E-01
   104.00  0.78580E-01
   105.00  0.77477E-01
   106.00  0.76467E-01
   107.00  0.75547E-01
   108.00  0.74716E-01
   109.00  0.73969E-01
   110.00  0.73307E-01
   111.00  0.72725E-01
   112.00  0.72224E-01
   113.00  0.71802E-01
   114.00  0.71456E-01
   115.00  0.71187E-01
   116.00  0.70995E-01
   117.00  0.70877E-01
   118.00  0.70834E-01
   119.00  0.70865E-01
   120.00  0.70972E-01
   121.00  0.71152E-01
   122.00  0.71408E-01
   123.00  0.71738E-01
   124.00  0.72144E-01
   125.00  0.72627E-01
   126.00  0.73186E-01
   127.00  0.73824E-01
   128.00  0.74539E-01
   129.00  0.75334E-01
   130.00  0.76210E-01
   131.00  0.77167E-01
   132.00  0.78206E-01
   133.00  0.79327E-01
   134.00  0.80533E-01
   135.00  0.81822E-01
   136.00  0.83196E-01
   137.00  0.84654E-01
   138.00  0.86197E-01
   139.00  0.87822E-01
   140.00  0.89528E-01
   141.00  0.91314E-01
   142.00  0.93177E-01
   143.00  0.95112E-01
   144.00  0.97113E-01
   145.00  0.99174E-01
   146.00  0.10129    
   147.00  0.10344    
   148.00  0.10561    
   149.00  0.10780    
   150.00  0.10997    
   151.00  0.11211    
   152.00  0.11418    
   153.00  0.11615    
   154.00  0.11798    
   155.00  0.11963    
   156.00  0.12105    
   157.00  0.12219    
   158.00  0.12298    
   159.00  0.12339    
   160.00  0.12335    
   161.00  0.12282    
   162.00  0.12179    
   163.00  0.12023    
   164.00  0.11819    
   165.00  0.11572    
   166.00  0.11293    
   167.00  0.10998    
   168.00  0.10707    
   169.00  0.10443    
   170.00  0.10232    
   171.00  0.10096    
   172.00  0.10054    
   173.00  0.10114    
   174.00  0.10273    
   175.00  0.10512    
   176.00  0.10799    
   177.00  0.11092    
   178.00  0.11346    
   179.00  0.11517    
   180.00  0.11578    
 |--------|------------|
0.730000     micron = Wavelength
 2.90040     = Extinction efficiency (Q)
 2.90040     = Scattering efficiency (Qs)
 0.00000     = Absorption efficiency (Qa)
 108.540     = Lidar ratio
0.625714     micron^2 = <b> = Average surface area per particle
 1.81482     microns^2 = Extinction cross section (C)
 1.81482     microns^2 = Scattering cross section (Cs)
 0.00000     microns^2 = Absorption cross section (Ca)
 |----------------------------------------------------|
 | COMMENTAIRES:                                      |
 |----------------------------------------------------|
 |   -Cross section / <b> should = efficiency         |
 |    is independant of the normalisation of dN/dx    |
 |   -The integral of the phase fct / 4 pi over all   |
 |    directions (solid angle) = 1.                   |
 |   -The volume coefficient (k) is equal to C * N    |
 |      = cross section * Number density              |
 |      typical units: [um^2]*[particles/cm^3] =      |
 |      [10^-3 km-1]                                  |
 |      N = M/(d*4/3*pi*r^3) where d is the density   |
 |      of particle, M is the mass per unit volume    |
 |      and 4/3*pi*r^3 is the average volume  of a    |
 |      particle.                                     |
 |      typical units:  M -> [ug/m^3], d -> [g/cm^3]  |
 |                      r -> [um]                     |
 |      Lidar ratio= 4 pi Qe / phase_fct(180)*Qs      |
 |----------------------------------------------------|
