 |--------|------------|
 | ANGLE  |  PHASE FCT |
 |--------|------------|
     0.00   13.670    
     1.00   13.646    
     2.00   13.574    
     3.00   13.455    
     4.00   13.292    
     5.00   13.087    
     6.00   12.842    
     7.00   12.562    
     8.00   12.250    
     9.00   11.911    
    10.00   11.548    
    11.00   11.165    
    12.00   10.768    
    13.00   10.359    
    14.00   9.9421    
    15.00   9.5216    
    16.00   9.1000    
    17.00   8.6803    
    18.00   8.2651    
    19.00   7.8566    
    20.00   7.4567    
    21.00   7.0669    
    22.00   6.6887    
    23.00   6.3231    
    24.00   5.9709    
    25.00   5.6327    
    26.00   5.3089    
    27.00   4.9997    
    28.00   4.7052    
    29.00   4.4253    
    30.00   4.1598    
    31.00   3.9086    
    32.00   3.6712    
    33.00   3.4472    
    34.00   3.2362    
    35.00   3.0377    
    36.00   2.8511    
    37.00   2.6760    
    38.00   2.5118    
    39.00   2.3579    
    40.00   2.2137    
    41.00   2.0789    
    42.00   1.9527    
    43.00   1.8348    
    44.00   1.7247    
    45.00   1.6217    
    46.00   1.5256    
    47.00   1.4359    
    48.00   1.3521    
    49.00   1.2739    
    50.00   1.2009    
    51.00   1.1328    
    52.00   1.0691    
    53.00   1.0097    
    54.00  0.95424    
    55.00  0.90242    
    56.00  0.85399    
    57.00  0.80874    
    58.00  0.76643    
    59.00  0.72686    
    60.00  0.68985    
    61.00  0.65521    
    62.00  0.62278    
    63.00  0.59240    
    64.00  0.56394    
    65.00  0.53725    
    66.00  0.51223    
    67.00  0.48874    
    68.00  0.46670    
    69.00  0.44600    
    70.00  0.42654    
    71.00  0.40826    
    72.00  0.39106    
    73.00  0.37488    
    74.00  0.35965    
    75.00  0.34531    
    76.00  0.33180    
    77.00  0.31907    
    78.00  0.30707    
    79.00  0.29575    
    80.00  0.28507    
    81.00  0.27499    
    82.00  0.26548    
    83.00  0.25650    
    84.00  0.24802    
    85.00  0.24001    
    86.00  0.23244    
    87.00  0.22530    
    88.00  0.21855    
    89.00  0.21217    
    90.00  0.20615    
    91.00  0.20046    
    92.00  0.19509    
    93.00  0.19002    
    94.00  0.18524    
    95.00  0.18074    
    96.00  0.17649    
    97.00  0.17249    
    98.00  0.16873    
    99.00  0.16520    
   100.00  0.16188    
   101.00  0.15878    
   102.00  0.15587    
   103.00  0.15316    
   104.00  0.15064    
   105.00  0.14829    
   106.00  0.14612    
   107.00  0.14412    
   108.00  0.14228    
   109.00  0.14061    
   110.00  0.13909    
   111.00  0.13772    
   112.00  0.13650    
   113.00  0.13543    
   114.00  0.13450    
   115.00  0.13371    
   116.00  0.13306    
   117.00  0.13255    
   118.00  0.13217    
   119.00  0.13192    
   120.00  0.13180    
   121.00  0.13182    
   122.00  0.13196    
   123.00  0.13223    
   124.00  0.13262    
   125.00  0.13313    
   126.00  0.13376    
   127.00  0.13452    
   128.00  0.13538    
   129.00  0.13636    
   130.00  0.13744    
   131.00  0.13863    
   132.00  0.13992    
   133.00  0.14130    
   134.00  0.14276    
   135.00  0.14430    
   136.00  0.14591    
   137.00  0.14758    
   138.00  0.14929    
   139.00  0.15105    
   140.00  0.15282    
   141.00  0.15460    
   142.00  0.15638    
   143.00  0.15813    
   144.00  0.15984    
   145.00  0.16149    
   146.00  0.16307    
   147.00  0.16456    
   148.00  0.16595    
   149.00  0.16721    
   150.00  0.16836    
   151.00  0.16937    
   152.00  0.17026    
   153.00  0.17102    
   154.00  0.17169    
   155.00  0.17227    
   156.00  0.17281    
   157.00  0.17335    
   158.00  0.17396    
   159.00  0.17469    
   160.00  0.17562    
   161.00  0.17684    
   162.00  0.17844    
   163.00  0.18049    
   164.00  0.18309    
   165.00  0.18631    
   166.00  0.19018    
   167.00  0.19475    
   168.00  0.19999    
   169.00  0.20587    
   170.00  0.21229    
   171.00  0.21913    
   172.00  0.22621    
   173.00  0.23331    
   174.00  0.24021    
   175.00  0.24664    
   176.00  0.25234    
   177.00  0.25707    
   178.00  0.26062    
   179.00  0.26282    
   180.00  0.26356    
 |--------|------------|
0.480000     micron = Wavelength
 2.86487     = Extinction efficiency (Q)
 2.86487     = Scattering efficiency (Qs)
 0.00000     = Absorption efficiency (Qa)
 47.6789     = Lidar ratio
0.110755     micron^2 = <b> = Average surface area per particle
0.317299     microns^2 = Extinction cross section (C)
0.317299     microns^2 = Scattering cross section (Cs)
 0.00000     microns^2 = Absorption cross section (Ca)
 |----------------------------------------------------|
 | COMMENTAIRES:                                      |
 |----------------------------------------------------|
 |   -Cross section / <b> should = efficiency         |
 |    is independant of the normalisation of dN/dx    |
 |   -The integral of the phase fct / 4 pi over all   |
 |    directions (solid angle) = 1.                   |
 |   -The volume coefficient (k) is equal to C * N    |
 |      = cross section * Number density              |
 |      typical units: [um^2]*[particles/cm^3] =      |
 |      [10^-3 km-1]                                  |
 |      N = M/(d*4/3*pi*r^3) where d is the density   |
 |      of particle, M is the mass per unit volume    |
 |      and 4/3*pi*r^3 is the average volume  of a    |
 |      particle.                                     |
 |      typical units:  M -> [ug/m^3], d -> [g/cm^3]  |
 |                      r -> [um]                     |
 |      Lidar ratio= 4 pi Qe / phase_fct(180)*Qs      |
 |----------------------------------------------------|
