 |--------|------------|
 | ANGLE  |  PHASE FCT |
 |--------|------------|
     0.00   122.95    
     1.00   119.21    
     2.00   108.95    
     3.00   94.529    
     4.00   78.645    
     5.00   63.425    
     6.00   50.081    
     7.00   39.058    
     8.00   30.324    
     9.00   23.610    
    10.00   18.554    
    11.00   14.799    
    12.00   12.030    
    13.00   9.9942    
    14.00   8.4914    
    15.00   7.3720    
    16.00   6.5257    
    17.00   5.8725    
    18.00   5.3554    
    19.00   4.9347    
    20.00   4.5825    
    21.00   4.2794    
    22.00   4.0122    
    23.00   3.7719    
    24.00   3.5524    
    25.00   3.3496    
    26.00   3.1605    
    27.00   2.9830    
    28.00   2.8159    
    29.00   2.6581    
    30.00   2.5090    
    31.00   2.3678    
    32.00   2.2343    
    33.00   2.1080    
    34.00   1.9885    
    35.00   1.8755    
    36.00   1.7688    
    37.00   1.6680    
    38.00   1.5730    
    39.00   1.4832    
    40.00   1.3987    
    41.00   1.3190    
    42.00   1.2440    
    43.00   1.1733    
    44.00   1.1068    
    45.00   1.0442    
    46.00  0.98538    
    47.00  0.93001    
    48.00  0.87795    
    49.00  0.82901    
    50.00  0.78300    
    51.00  0.73973    
    52.00  0.69908    
    53.00  0.66086    
    54.00  0.62493    
    55.00  0.59115    
    56.00  0.55940    
    57.00  0.52957    
    58.00  0.50151    
    59.00  0.47512    
    60.00  0.45031    
    61.00  0.42698    
    62.00  0.40504    
    63.00  0.38441    
    64.00  0.36500    
    65.00  0.34674    
    66.00  0.32956    
    67.00  0.31341    
    68.00  0.29821    
    69.00  0.28390    
    70.00  0.27045    
    71.00  0.25779    
    72.00  0.24589    
    73.00  0.23469    
    74.00  0.22416    
    75.00  0.21426    
    76.00  0.20495    
    77.00  0.19620    
    78.00  0.18798    
    79.00  0.18026    
    80.00  0.17301    
    81.00  0.16621    
    82.00  0.15982    
    83.00  0.15384    
    84.00  0.14823    
    85.00  0.14298    
    86.00  0.13806    
    87.00  0.13347    
    88.00  0.12917    
    89.00  0.12517    
    90.00  0.12143    
    91.00  0.11795    
    92.00  0.11471    
    93.00  0.11171    
    94.00  0.10892    
    95.00  0.10634    
    96.00  0.10396    
    97.00  0.10176    
    98.00  0.99741E-01
    99.00  0.97893E-01
   100.00  0.96208E-01
   101.00  0.94677E-01
   102.00  0.93295E-01
   103.00  0.92057E-01
   104.00  0.90961E-01
   105.00  0.90001E-01
   106.00  0.89175E-01
   107.00  0.88482E-01
   108.00  0.87921E-01
   109.00  0.87492E-01
   110.00  0.87200E-01
   111.00  0.87048E-01
   112.00  0.87037E-01
   113.00  0.87172E-01
   114.00  0.87463E-01
   115.00  0.87918E-01
   116.00  0.88548E-01
   117.00  0.89361E-01
   118.00  0.90368E-01
   119.00  0.91585E-01
   120.00  0.93030E-01
   121.00  0.94718E-01
   122.00  0.96663E-01
   123.00  0.98884E-01
   124.00  0.10141    
   125.00  0.10425    
   126.00  0.10743    
   127.00  0.11096    
   128.00  0.11488    
   129.00  0.11919    
   130.00  0.12392    
   131.00  0.12907    
   132.00  0.13466    
   133.00  0.14069    
   134.00  0.14716    
   135.00  0.15405    
   136.00  0.16134    
   137.00  0.16899    
   138.00  0.17697    
   139.00  0.18520    
   140.00  0.19360    
   141.00  0.20208    
   142.00  0.21055    
   143.00  0.21887    
   144.00  0.22692    
   145.00  0.23456    
   146.00  0.24167    
   147.00  0.24811    
   148.00  0.25377    
   149.00  0.25857    
   150.00  0.26247    
   151.00  0.26547    
   152.00  0.26763    
   153.00  0.26909    
   154.00  0.27006    
   155.00  0.27085    
   156.00  0.27186    
   157.00  0.27361    
   158.00  0.27668    
   159.00  0.28177    
   160.00  0.28960    
   161.00  0.30088    
   162.00  0.31615    
   163.00  0.33562    
   164.00  0.35892    
   165.00  0.38481    
   166.00  0.41101    
   167.00  0.43408    
   168.00  0.44976    
   169.00  0.45369    
   170.00  0.44286    
   171.00  0.41723    
   172.00  0.38104    
   173.00  0.34336    
   174.00  0.31673    
   175.00  0.31385    
   176.00  0.34310    
   177.00  0.40338    
   178.00  0.47987    
   179.00  0.54520    
   180.00  0.57105    
 |--------|------------|
0.420000     micron = Wavelength
 2.46531     = Extinction efficiency (Q)
 2.46531     = Scattering efficiency (Qs)
 0.00000     = Absorption efficiency (Qa)
 22.0058     = Lidar ratio
 1.56961     micron^2 = <b> = Average surface area per particle
 3.86957     microns^2 = Extinction cross section (C)
 3.86957     microns^2 = Scattering cross section (Cs)
0.188010E-14 microns^2 = Absorption cross section (Ca)
 |----------------------------------------------------|
 | COMMENTAIRES:                                      |
 |----------------------------------------------------|
 |   -Cross section / <b> should = efficiency         |
 |    is independant of the normalisation of dN/dx    |
 |   -The integral of the phase fct / 4 pi over all   |
 |    directions (solid angle) = 1.                   |
 |   -The volume coefficient (k) is equal to C * N    |
 |      = cross section * Number density              |
 |      typical units: [um^2]*[particles/cm^3] =      |
 |      [10^-3 km-1]                                  |
 |      N = M/(d*4/3*pi*r^3) where d is the density   |
 |      of particle, M is the mass per unit volume    |
 |      and 4/3*pi*r^3 is the average volume  of a    |
 |      particle.                                     |
 |      typical units:  M -> [ug/m^3], d -> [g/cm^3]  |
 |                      r -> [um]                     |
 |      Lidar ratio= 4 pi Qe / phase_fct(180)*Qs      |
 |----------------------------------------------------|
