 |--------|------------|
 | ANGLE  |  PHASE FCT |
 |--------|------------|
     0.00   24.666    
     1.00   24.584    
     2.00   24.342    
     3.00   23.947    
     4.00   23.410    
     5.00   22.747    
     6.00   21.975    
     7.00   21.113    
     8.00   20.180    
     9.00   19.196    
    10.00   18.178    
    11.00   17.143    
    12.00   16.106    
    13.00   15.080    
    14.00   14.074    
    15.00   13.098    
    16.00   12.159    
    17.00   11.262    
    18.00   10.410    
    19.00   9.6056    
    20.00   8.8498    
    21.00   8.1430    
    22.00   7.4846    
    23.00   6.8734    
    24.00   6.3077    
    25.00   5.7857    
    26.00   5.3050    
    27.00   4.8634    
    28.00   4.4584    
    29.00   4.0876    
    30.00   3.7484    
    31.00   3.4386    
    32.00   3.1558    
    33.00   2.8978    
    34.00   2.6627    
    35.00   2.4484    
    36.00   2.2532    
    37.00   2.0753    
    38.00   1.9133    
    39.00   1.7656    
    40.00   1.6310    
    41.00   1.5082    
    42.00   1.3962    
    43.00   1.2940    
    44.00   1.2006    
    45.00   1.1152    
    46.00   1.0371    
    47.00  0.96562    
    48.00  0.90009    
    49.00  0.83999    
    50.00  0.78481    
    51.00  0.73411    
    52.00  0.68747    
    53.00  0.64453    
    54.00  0.60496    
    55.00  0.56845    
    56.00  0.53473    
    57.00  0.50356    
    58.00  0.47472    
    59.00  0.44800    
    60.00  0.42324    
    61.00  0.40025    
    62.00  0.37890    
    63.00  0.35905    
    64.00  0.34058    
    65.00  0.32337    
    66.00  0.30734    
    67.00  0.29238    
    68.00  0.27841    
    69.00  0.26536    
    70.00  0.25316    
    71.00  0.24174    
    72.00  0.23105    
    73.00  0.22103    
    74.00  0.21164    
    75.00  0.20283    
    76.00  0.19457    
    77.00  0.18680    
    78.00  0.17951    
    79.00  0.17265    
    80.00  0.16621    
    81.00  0.16014    
    82.00  0.15444    
    83.00  0.14907    
    84.00  0.14402    
    85.00  0.13926    
    86.00  0.13478    
    87.00  0.13056    
    88.00  0.12658    
    89.00  0.12284    
    90.00  0.11931    
    91.00  0.11600    
    92.00  0.11287    
    93.00  0.10993    
    94.00  0.10717    
    95.00  0.10457    
    96.00  0.10213    
    97.00  0.99846E-01
    98.00  0.97701E-01
    99.00  0.95693E-01
   100.00  0.93816E-01
   101.00  0.92065E-01
   102.00  0.90434E-01
   103.00  0.88919E-01
   104.00  0.87515E-01
   105.00  0.86219E-01
   106.00  0.85027E-01
   107.00  0.83936E-01
   108.00  0.82943E-01
   109.00  0.82046E-01
   110.00  0.81241E-01
   111.00  0.80529E-01
   112.00  0.79905E-01
   113.00  0.79370E-01
   114.00  0.78921E-01
   115.00  0.78558E-01
   116.00  0.78281E-01
   117.00  0.78088E-01
   118.00  0.77980E-01
   119.00  0.77955E-01
   120.00  0.78015E-01
   121.00  0.78159E-01
   122.00  0.78389E-01
   123.00  0.78704E-01
   124.00  0.79105E-01
   125.00  0.79594E-01
   126.00  0.80171E-01
   127.00  0.80837E-01
   128.00  0.81594E-01
   129.00  0.82443E-01
   130.00  0.83385E-01
   131.00  0.84422E-01
   132.00  0.85555E-01
   133.00  0.86784E-01
   134.00  0.88111E-01
   135.00  0.89536E-01
   136.00  0.91059E-01
   137.00  0.92680E-01
   138.00  0.94399E-01
   139.00  0.96214E-01
   140.00  0.98121E-01
   141.00  0.10012    
   142.00  0.10220    
   143.00  0.10436    
   144.00  0.10659    
   145.00  0.10887    
   146.00  0.11121    
   147.00  0.11357    
   148.00  0.11594    
   149.00  0.11830    
   150.00  0.12062    
   151.00  0.12287    
   152.00  0.12501    
   153.00  0.12701    
   154.00  0.12883    
   155.00  0.13041    
   156.00  0.13171    
   157.00  0.13269    
   158.00  0.13330    
   159.00  0.13349    
   160.00  0.13326    
   161.00  0.13257    
   162.00  0.13144    
   163.00  0.12990    
   164.00  0.12802    
   165.00  0.12589    
   166.00  0.12365    
   167.00  0.12146    
   168.00  0.11951    
   169.00  0.11799    
   170.00  0.11708    
   171.00  0.11695    
   172.00  0.11766    
   173.00  0.11922    
   174.00  0.12153    
   175.00  0.12437    
   176.00  0.12744    
   177.00  0.13037    
   178.00  0.13281    
   179.00  0.13441    
   180.00  0.13498    
 |--------|------------|
0.430000     micron = Wavelength
 2.87183     = Extinction efficiency (Q)
 2.87183     = Scattering efficiency (Qs)
 0.00000     = Absorption efficiency (Qa)
 93.1009     = Lidar ratio
0.180223     micron^2 = <b> = Average surface area per particle
0.517570     microns^2 = Extinction cross section (C)
0.517570     microns^2 = Scattering cross section (Cs)
 0.00000     microns^2 = Absorption cross section (Ca)
 |----------------------------------------------------|
 | COMMENTAIRES:                                      |
 |----------------------------------------------------|
 |   -Cross section / <b> should = efficiency         |
 |    is independant of the normalisation of dN/dx    |
 |   -The integral of the phase fct / 4 pi over all   |
 |    directions (solid angle) = 1.                   |
 |   -The volume coefficient (k) is equal to C * N    |
 |      = cross section * Number density              |
 |      typical units: [um^2]*[particles/cm^3] =      |
 |      [10^-3 km-1]                                  |
 |      N = M/(d*4/3*pi*r^3) where d is the density   |
 |      of particle, M is the mass per unit volume    |
 |      and 4/3*pi*r^3 is the average volume  of a    |
 |      particle.                                     |
 |      typical units:  M -> [ug/m^3], d -> [g/cm^3]  |
 |                      r -> [um]                     |
 |      Lidar ratio= 4 pi Qe / phase_fct(180)*Qs      |
 |----------------------------------------------------|
