 |--------|------------|
 | ANGLE  |  PHASE FCT |
 |--------|------------|
     0.00   16.209    
     1.00   16.178    
     2.00   16.085    
     3.00   15.932    
     4.00   15.721    
     5.00   15.456    
     6.00   15.141    
     7.00   14.780    
     8.00   14.380    
     9.00   13.944    
    10.00   13.479    
    11.00   12.990    
    12.00   12.484    
    13.00   11.964    
    14.00   11.436    
    15.00   10.905    
    16.00   10.375    
    17.00   9.8489    
    18.00   9.3307    
    19.00   8.8229    
    20.00   8.3282    
    21.00   7.8482    
    22.00   7.3848    
    23.00   6.9390    
    24.00   6.5119    
    25.00   6.1039    
    26.00   5.7155    
    27.00   5.3467    
    28.00   4.9974    
    29.00   4.6674    
    30.00   4.3564    
    31.00   4.0638    
    32.00   3.7890    
    33.00   3.5315    
    34.00   3.2903    
    35.00   3.0650    
    36.00   2.8545    
    37.00   2.6583    
    38.00   2.4755    
    39.00   2.3053    
    40.00   2.1471    
    41.00   2.0000    
    42.00   1.8634    
    43.00   1.7366    
    44.00   1.6190    
    45.00   1.5098    
    46.00   1.4087    
    47.00   1.3149    
    48.00   1.2279    
    49.00   1.1474    
    50.00   1.0727    
    51.00   1.0035    
    52.00  0.93940    
    53.00  0.87996    
    54.00  0.82487    
    55.00  0.77379    
    56.00  0.72642    
    57.00  0.68247    
    58.00  0.64169    
    59.00  0.60384    
    60.00  0.56870    
    61.00  0.53605    
    62.00  0.50571    
    63.00  0.47750    
    64.00  0.45126    
    65.00  0.42684    
    66.00  0.40411    
    67.00  0.38293    
    68.00  0.36320    
    69.00  0.34479    
    70.00  0.32762    
    71.00  0.31160    
    72.00  0.29663    
    73.00  0.28264    
    74.00  0.26956    
    75.00  0.25733    
    76.00  0.24588    
    77.00  0.23515    
    78.00  0.22511    
    79.00  0.21569    
    80.00  0.20686    
    81.00  0.19858    
    82.00  0.19080    
    83.00  0.18350    
    84.00  0.17665    
    85.00  0.17020    
    86.00  0.16415    
    87.00  0.15845    
    88.00  0.15310    
    89.00  0.14806    
    90.00  0.14332    
    91.00  0.13886    
    92.00  0.13467    
    93.00  0.13072    
    94.00  0.12701    
    95.00  0.12351    
    96.00  0.12023    
    97.00  0.11714    
    98.00  0.11424    
    99.00  0.11151    
   100.00  0.10896    
   101.00  0.10656    
   102.00  0.10431    
   103.00  0.10220    
   104.00  0.10023    
   105.00  0.98398E-01
   106.00  0.96688E-01
   107.00  0.95097E-01
   108.00  0.93623E-01
   109.00  0.92259E-01
   110.00  0.91002E-01
   111.00  0.89848E-01
   112.00  0.88793E-01
   113.00  0.87836E-01
   114.00  0.86971E-01
   115.00  0.86198E-01
   116.00  0.85512E-01
   117.00  0.84913E-01
   118.00  0.84398E-01
   119.00  0.83964E-01
   120.00  0.83611E-01
   121.00  0.83337E-01
   122.00  0.83140E-01
   123.00  0.83019E-01
   124.00  0.82972E-01
   125.00  0.82998E-01
   126.00  0.83097E-01
   127.00  0.83266E-01
   128.00  0.83505E-01
   129.00  0.83812E-01
   130.00  0.84186E-01
   131.00  0.84626E-01
   132.00  0.85131E-01
   133.00  0.85698E-01
   134.00  0.86326E-01
   135.00  0.87013E-01
   136.00  0.87758E-01
   137.00  0.88556E-01
   138.00  0.89407E-01
   139.00  0.90307E-01
   140.00  0.91252E-01
   141.00  0.92238E-01
   142.00  0.93262E-01
   143.00  0.94320E-01
   144.00  0.95405E-01
   145.00  0.96514E-01
   146.00  0.97640E-01
   147.00  0.98777E-01
   148.00  0.99921E-01
   149.00  0.10106    
   150.00  0.10220    
   151.00  0.10333    
   152.00  0.10443    
   153.00  0.10552    
   154.00  0.10658    
   155.00  0.10761    
   156.00  0.10862    
   157.00  0.10960    
   158.00  0.11056    
   159.00  0.11152    
   160.00  0.11246    
   161.00  0.11343    
   162.00  0.11442    
   163.00  0.11546    
   164.00  0.11657    
   165.00  0.11777    
   166.00  0.11908    
   167.00  0.12052    
   168.00  0.12210    
   169.00  0.12382    
   170.00  0.12568    
   171.00  0.12764    
   172.00  0.12968    
   173.00  0.13174    
   174.00  0.13376    
   175.00  0.13566    
   176.00  0.13736    
   177.00  0.13878    
   178.00  0.13986    
   179.00  0.14053    
   180.00  0.14076    
 |--------|------------|
0.520000     micron = Wavelength
 2.07766     = Extinction efficiency (Q)
 2.07766     = Scattering efficiency (Qs)
 0.00000     = Absorption efficiency (Qa)
 89.2747     = Lidar ratio
0.126656     micron^2 = <b> = Average surface area per particle
0.263147     microns^2 = Extinction cross section (C)
0.263147     microns^2 = Scattering cross section (Cs)
 0.00000     microns^2 = Absorption cross section (Ca)
 |----------------------------------------------------|
 | COMMENTAIRES:                                      |
 |----------------------------------------------------|
 |   -Cross section / <b> should = efficiency         |
 |    is independant of the normalisation of dN/dx    |
 |   -The integral of the phase fct / 4 pi over all   |
 |    directions (solid angle) = 1.                   |
 |   -The volume coefficient (k) is equal to C * N    |
 |      = cross section * Number density              |
 |      typical units: [um^2]*[particles/cm^3] =      |
 |      [10^-3 km-1]                                  |
 |      N = M/(d*4/3*pi*r^3) where d is the density   |
 |      of particle, M is the mass per unit volume    |
 |      and 4/3*pi*r^3 is the average volume  of a    |
 |      particle.                                     |
 |      typical units:  M -> [ug/m^3], d -> [g/cm^3]  |
 |                      r -> [um]                     |
 |      Lidar ratio= 4 pi Qe / phase_fct(180)*Qs      |
 |----------------------------------------------------|
