 |--------|------------|
 | ANGLE  |  PHASE FCT |
 |--------|------------|
     0.00   65.518    
     1.00   64.525    
     2.00   61.687    
     3.00   57.386    
     4.00   52.128    
     5.00   46.421    
     6.00   40.692    
     7.00   35.247    
     8.00   30.280    
     9.00   25.883    
    10.00   22.079    
    11.00   18.846    
    12.00   16.132    
    13.00   13.874    
    14.00   12.006    
    15.00   10.464    
    16.00   9.1917    
    17.00   8.1384    
    18.00   7.2620    
    19.00   6.5280    
    20.00   5.9079    
    21.00   5.3790    
    22.00   4.9231    
    23.00   4.5262    
    24.00   4.1770    
    25.00   3.8668    
    26.00   3.5888    
    27.00   3.3377    
    28.00   3.1093    
    29.00   2.9005    
    30.00   2.7085    
    31.00   2.5315    
    32.00   2.3678    
    33.00   2.2159    
    34.00   2.0748    
    35.00   1.9435    
    36.00   1.8212    
    37.00   1.7073    
    38.00   1.6010    
    39.00   1.5018    
    40.00   1.4093    
    41.00   1.3229    
    42.00   1.2422    
    43.00   1.1669    
    44.00   1.0966    
    45.00   1.0309    
    46.00  0.96954    
    47.00  0.91223    
    48.00  0.85869    
    49.00  0.80867    
    50.00  0.76193    
    51.00  0.71824    
    52.00  0.67740    
    53.00  0.63922    
    54.00  0.60351    
    55.00  0.57011    
    56.00  0.53886    
    57.00  0.50963    
    58.00  0.48226    
    59.00  0.45663    
    60.00  0.43263    
    61.00  0.41016    
    62.00  0.38910    
    63.00  0.36936    
    64.00  0.35086    
    65.00  0.33352    
    66.00  0.31726    
    67.00  0.30200    
    68.00  0.28769    
    69.00  0.27426    
    70.00  0.26166    
    71.00  0.24984    
    72.00  0.23873    
    73.00  0.22831    
    74.00  0.21853    
    75.00  0.20934    
    76.00  0.20071    
    77.00  0.19261    
    78.00  0.18501    
    79.00  0.17787    
    80.00  0.17116    
    81.00  0.16487    
    82.00  0.15896    
    83.00  0.15342    
    84.00  0.14822    
    85.00  0.14334    
    86.00  0.13877    
    87.00  0.13449    
    88.00  0.13047    
    89.00  0.12672    
    90.00  0.12320    
    91.00  0.11992    
    92.00  0.11685    
    93.00  0.11399    
    94.00  0.11132    
    95.00  0.10884    
    96.00  0.10654    
    97.00  0.10441    
    98.00  0.10244    
    99.00  0.10063    
   100.00  0.98974E-01
   101.00  0.97460E-01
   102.00  0.96087E-01
   103.00  0.94852E-01
   104.00  0.93752E-01
   105.00  0.92782E-01
   106.00  0.91943E-01
   107.00  0.91233E-01
   108.00  0.90651E-01
   109.00  0.90195E-01
   110.00  0.89869E-01
   111.00  0.89672E-01
   112.00  0.89606E-01
   113.00  0.89673E-01
   114.00  0.89876E-01
   115.00  0.90218E-01
   116.00  0.90704E-01
   117.00  0.91338E-01
   118.00  0.92125E-01
   119.00  0.93070E-01
   120.00  0.94179E-01
   121.00  0.95458E-01
   122.00  0.96914E-01
   123.00  0.98554E-01
   124.00  0.10038    
   125.00  0.10241    
   126.00  0.10464    
   127.00  0.10708    
   128.00  0.10974    
   129.00  0.11262    
   130.00  0.11572    
   131.00  0.11905    
   132.00  0.12261    
   133.00  0.12640    
   134.00  0.13041    
   135.00  0.13464    
   136.00  0.13908    
   137.00  0.14372    
   138.00  0.14854    
   139.00  0.15351    
   140.00  0.15862    
   141.00  0.16384    
   142.00  0.16914    
   143.00  0.17448    
   144.00  0.17984    
   145.00  0.18517    
   146.00  0.19045    
   147.00  0.19566    
   148.00  0.20077    
   149.00  0.20579    
   150.00  0.21072    
   151.00  0.21561    
   152.00  0.22050    
   153.00  0.22547    
   154.00  0.23064    
   155.00  0.23613    
   156.00  0.24209    
   157.00  0.24866    
   158.00  0.25598    
   159.00  0.26410    
   160.00  0.27300    
   161.00  0.28248    
   162.00  0.29214    
   163.00  0.30130    
   164.00  0.30896    
   165.00  0.31388    
   166.00  0.31464    
   167.00  0.30985    
   168.00  0.29852    
   169.00  0.28048    
   170.00  0.25683    
   171.00  0.23017    
   172.00  0.20463    
   173.00  0.18527    
   174.00  0.17697    
   175.00  0.18288    
   176.00  0.20298    
   177.00  0.23316    
   178.00  0.26552    
   179.00  0.29041    
   180.00  0.29976    
 |--------|------------|
0.450000     micron = Wavelength
 2.80896     = Extinction efficiency (Q)
 2.80896     = Scattering efficiency (Qs)
 0.00000     = Absorption efficiency (Qa)
 41.9214     = Lidar ratio
0.917847     micron^2 = <b> = Average surface area per particle
 2.57820     microns^2 = Extinction cross section (C)
 2.57820     microns^2 = Scattering cross section (Cs)
 0.00000     microns^2 = Absorption cross section (Ca)
 |----------------------------------------------------|
 | COMMENTAIRES:                                      |
 |----------------------------------------------------|
 |   -Cross section / <b> should = efficiency         |
 |    is independant of the normalisation of dN/dx    |
 |   -The integral of the phase fct / 4 pi over all   |
 |    directions (solid angle) = 1.                   |
 |   -The volume coefficient (k) is equal to C * N    |
 |      = cross section * Number density              |
 |      typical units: [um^2]*[particles/cm^3] =      |
 |      [10^-3 km-1]                                  |
 |      N = M/(d*4/3*pi*r^3) where d is the density   |
 |      of particle, M is the mass per unit volume    |
 |      and 4/3*pi*r^3 is the average volume  of a    |
 |      particle.                                     |
 |      typical units:  M -> [ug/m^3], d -> [g/cm^3]  |
 |                      r -> [um]                     |
 |      Lidar ratio= 4 pi Qe / phase_fct(180)*Qs      |
 |----------------------------------------------------|
