 |--------|------------|
 | ANGLE  |  PHASE FCT |
 |--------|------------|
     0.00   15.129    
     1.00   15.102    
     2.00   15.023    
     3.00   14.893    
     4.00   14.712    
     5.00   14.486    
     6.00   14.215    
     7.00   13.905    
     8.00   13.559    
     9.00   13.181    
    10.00   12.776    
    11.00   12.349    
    12.00   11.904    
    13.00   11.446    
    14.00   10.978    
    15.00   10.505    
    16.00   10.030    
    17.00   9.5560    
    18.00   9.0869    
    19.00   8.6249    
    20.00   8.1721    
    21.00   7.7306    
    22.00   7.3018    
    23.00   6.8872    
    24.00   6.4877    
    25.00   6.1040    
    26.00   5.7367    
    27.00   5.3861    
    28.00   5.0523    
    29.00   4.7353    
    30.00   4.4348    
    31.00   4.1507    
    32.00   3.8826    
    33.00   3.6299    
    34.00   3.3922    
    35.00   3.1690    
    36.00   2.9596    
    37.00   2.7634    
    38.00   2.5798    
    39.00   2.4081    
    40.00   2.2478    
    41.00   2.0982    
    42.00   1.9586    
    43.00   1.8286    
    44.00   1.7075    
    45.00   1.5948    
    46.00   1.4899    
    47.00   1.3923    
    48.00   1.3015    
    49.00   1.2172    
    50.00   1.1388    
    51.00   1.0659    
    52.00  0.99825    
    53.00  0.93535    
    54.00  0.87691    
    55.00  0.82261    
    56.00  0.77215    
    57.00  0.72525    
    58.00  0.68166    
    59.00  0.64113    
    60.00  0.60345    
    61.00  0.56840    
    62.00  0.53579    
    63.00  0.50545    
    64.00  0.47720    
    65.00  0.45089    
    66.00  0.42638    
    67.00  0.40354    
    68.00  0.38224    
    69.00  0.36238    
    70.00  0.34385    
    71.00  0.32655    
    72.00  0.31040    
    73.00  0.29530    
    74.00  0.28120    
    75.00  0.26800    
    76.00  0.25566    
    77.00  0.24411    
    78.00  0.23329    
    79.00  0.22316    
    80.00  0.21366    
    81.00  0.20476    
    82.00  0.19640    
    83.00  0.18857    
    84.00  0.18121    
    85.00  0.17431    
    86.00  0.16782    
    87.00  0.16173    
    88.00  0.15600    
    89.00  0.15062    
    90.00  0.14556    
    91.00  0.14080    
    92.00  0.13632    
    93.00  0.13211    
    94.00  0.12815    
    95.00  0.12443    
    96.00  0.12093    
    97.00  0.11764    
    98.00  0.11454    
    99.00  0.11164    
   100.00  0.10891    
   101.00  0.10634    
   102.00  0.10394    
   103.00  0.10169    
   104.00  0.99580E-01
   105.00  0.97608E-01
   106.00  0.95766E-01
   107.00  0.94048E-01
   108.00  0.92449E-01
   109.00  0.90964E-01
   110.00  0.89589E-01
   111.00  0.88317E-01
   112.00  0.87147E-01
   113.00  0.86074E-01
   114.00  0.85094E-01
   115.00  0.84205E-01
   116.00  0.83403E-01
   117.00  0.82687E-01
   118.00  0.82052E-01
   119.00  0.81498E-01
   120.00  0.81022E-01
   121.00  0.80622E-01
   122.00  0.80295E-01
   123.00  0.80041E-01
   124.00  0.79858E-01
   125.00  0.79744E-01
   126.00  0.79698E-01
   127.00  0.79718E-01
   128.00  0.79804E-01
   129.00  0.79953E-01
   130.00  0.80164E-01
   131.00  0.80437E-01
   132.00  0.80769E-01
   133.00  0.81160E-01
   134.00  0.81608E-01
   135.00  0.82111E-01
   136.00  0.82669E-01
   137.00  0.83278E-01
   138.00  0.83938E-01
   139.00  0.84646E-01
   140.00  0.85400E-01
   141.00  0.86199E-01
   142.00  0.87039E-01
   143.00  0.87918E-01
   144.00  0.88833E-01
   145.00  0.89782E-01
   146.00  0.90762E-01
   147.00  0.91770E-01
   148.00  0.92803E-01
   149.00  0.93857E-01
   150.00  0.94930E-01
   151.00  0.96021E-01
   152.00  0.97126E-01
   153.00  0.98243E-01
   154.00  0.99374E-01
   155.00  0.10052    
   156.00  0.10167    
   157.00  0.10284    
   158.00  0.10402    
   159.00  0.10523    
   160.00  0.10647    
   161.00  0.10773    
   162.00  0.10904    
   163.00  0.11040    
   164.00  0.11181    
   165.00  0.11329    
   166.00  0.11483    
   167.00  0.11644    
   168.00  0.11812    
   169.00  0.11987    
   170.00  0.12165    
   171.00  0.12346    
   172.00  0.12526    
   173.00  0.12702    
   174.00  0.12869    
   175.00  0.13023    
   176.00  0.13157    
   177.00  0.13268    
   178.00  0.13350    
   179.00  0.13401    
   180.00  0.13418    
 |--------|------------|
0.670000     micron = Wavelength
 1.75904     = Extinction efficiency (Q)
 1.75904     = Scattering efficiency (Qs)
 0.00000     = Absorption efficiency (Qa)
 93.6515     = Lidar ratio
0.180223     micron^2 = <b> = Average surface area per particle
0.317020     microns^2 = Extinction cross section (C)
0.317020     microns^2 = Scattering cross section (Cs)
 0.00000     microns^2 = Absorption cross section (Ca)
 |----------------------------------------------------|
 | COMMENTAIRES:                                      |
 |----------------------------------------------------|
 |   -Cross section / <b> should = efficiency         |
 |    is independant of the normalisation of dN/dx    |
 |   -The integral of the phase fct / 4 pi over all   |
 |    directions (solid angle) = 1.                   |
 |   -The volume coefficient (k) is equal to C * N    |
 |      = cross section * Number density              |
 |      typical units: [um^2]*[particles/cm^3] =      |
 |      [10^-3 km-1]                                  |
 |      N = M/(d*4/3*pi*r^3) where d is the density   |
 |      of particle, M is the mass per unit volume    |
 |      and 4/3*pi*r^3 is the average volume  of a    |
 |      particle.                                     |
 |      typical units:  M -> [ug/m^3], d -> [g/cm^3]  |
 |                      r -> [um]                     |
 |      Lidar ratio= 4 pi Qe / phase_fct(180)*Qs      |
 |----------------------------------------------------|
