 |--------|------------|
 | ANGLE  |  PHASE FCT |
 |--------|------------|
     0.00   32.205    
     1.00   32.053    
     2.00   31.604    
     3.00   30.878    
     4.00   29.905    
     5.00   28.725    
     6.00   27.381    
     7.00   25.916    
     8.00   24.371    
     9.00   22.785    
    10.00   21.193    
    11.00   19.621    
    12.00   18.092    
    13.00   16.623    
    14.00   15.228    
    15.00   13.914    
    16.00   12.685    
    17.00   11.545    
    18.00   10.493    
    19.00   9.5264    
    20.00   8.6425    
    21.00   7.8369    
    22.00   7.1050    
    23.00   6.4415    
    24.00   5.8415    
    25.00   5.2996    
    26.00   4.8109    
    27.00   4.3706    
    28.00   3.9742    
    29.00   3.6173    
    30.00   3.2962    
    31.00   3.0072    
    32.00   2.7469    
    33.00   2.5125    
    34.00   2.3013    
    35.00   2.1108    
    36.00   1.9387    
    37.00   1.7833    
    38.00   1.6426    
    39.00   1.5152    
    40.00   1.3997    
    41.00   1.2948    
    42.00   1.1994    
    43.00   1.1126    
    44.00   1.0334    
    45.00  0.96116    
    46.00  0.89509    
    47.00  0.83460    
    48.00  0.77917    
    49.00  0.72829    
    50.00  0.68152    
    51.00  0.63849    
    52.00  0.59885    
    53.00  0.56229    
    54.00  0.52852    
    55.00  0.49730    
    56.00  0.46841    
    57.00  0.44165    
    58.00  0.41683    
    59.00  0.39379    
    60.00  0.37238    
    61.00  0.35247    
    62.00  0.33394    
    63.00  0.31668    
    64.00  0.30059    
    65.00  0.28558    
    66.00  0.27157    
    67.00  0.25848    
    68.00  0.24624    
    69.00  0.23480    
    70.00  0.22408    
    71.00  0.21405    
    72.00  0.20465    
    73.00  0.19584    
    74.00  0.18758    
    75.00  0.17983    
    76.00  0.17255    
    77.00  0.16572    
    78.00  0.15930    
    79.00  0.15328    
    80.00  0.14761    
    81.00  0.14229    
    82.00  0.13728    
    83.00  0.13257    
    84.00  0.12815    
    85.00  0.12398    
    86.00  0.12007    
    87.00  0.11639    
    88.00  0.11292    
    89.00  0.10967    
    90.00  0.10661    
    91.00  0.10374    
    92.00  0.10105    
    93.00  0.98515E-01
    94.00  0.96142E-01
    95.00  0.93921E-01
    96.00  0.91841E-01
    97.00  0.89897E-01
    98.00  0.88083E-01
    99.00  0.86394E-01
   100.00  0.84823E-01
   101.00  0.83366E-01
   102.00  0.82019E-01
   103.00  0.80777E-01
   104.00  0.79637E-01
   105.00  0.78596E-01
   106.00  0.77651E-01
   107.00  0.76798E-01
   108.00  0.76037E-01
   109.00  0.75363E-01
   110.00  0.74777E-01
   111.00  0.74275E-01
   112.00  0.73858E-01
   113.00  0.73523E-01
   114.00  0.73270E-01
   115.00  0.73097E-01
   116.00  0.73006E-01
   117.00  0.72995E-01
   118.00  0.73065E-01
   119.00  0.73215E-01
   120.00  0.73446E-01
   121.00  0.73758E-01
   122.00  0.74152E-01
   123.00  0.74629E-01
   124.00  0.75189E-01
   125.00  0.75834E-01
   126.00  0.76565E-01
   127.00  0.77382E-01
   128.00  0.78287E-01
   129.00  0.79283E-01
   130.00  0.80368E-01
   131.00  0.81547E-01
   132.00  0.82818E-01
   133.00  0.84185E-01
   134.00  0.85648E-01
   135.00  0.87209E-01
   136.00  0.88868E-01
   137.00  0.90627E-01
   138.00  0.92485E-01
   139.00  0.94443E-01
   140.00  0.96501E-01
   141.00  0.98658E-01
   142.00  0.10091    
   143.00  0.10326    
   144.00  0.10570    
   145.00  0.10823    
   146.00  0.11084    
   147.00  0.11352    
   148.00  0.11626    
   149.00  0.11904    
   150.00  0.12185    
   151.00  0.12466    
   152.00  0.12743    
   153.00  0.13014    
   154.00  0.13273    
   155.00  0.13514    
   156.00  0.13732    
   157.00  0.13917    
   158.00  0.14062    
   159.00  0.14157    
   160.00  0.14191    
   161.00  0.14155    
   162.00  0.14040    
   163.00  0.13840    
   164.00  0.13552    
   165.00  0.13179    
   166.00  0.12732    
   167.00  0.12230    
   168.00  0.11702    
   169.00  0.11185    
   170.00  0.10723    
   171.00  0.10362    
   172.00  0.10140    
   173.00  0.10086    
   174.00  0.10206    
   175.00  0.10481    
   176.00  0.10862    
   177.00  0.11283    
   178.00  0.11663    
   179.00  0.11926    
   180.00  0.12021    
 |--------|------------|
0.650000     micron = Wavelength
 3.05059     = Extinction efficiency (Q)
 3.05059     = Scattering efficiency (Qs)
 0.00000     = Absorption efficiency (Qa)
 104.541     = Lidar ratio
0.625715     micron^2 = <b> = Average surface area per particle
 1.90880     microns^2 = Extinction cross section (C)
 1.90880     microns^2 = Scattering cross section (Cs)
 0.00000     microns^2 = Absorption cross section (Ca)
 |----------------------------------------------------|
 | COMMENTAIRES:                                      |
 |----------------------------------------------------|
 |   -Cross section / <b> should = efficiency         |
 |    is independant of the normalisation of dN/dx    |
 |   -The integral of the phase fct / 4 pi over all   |
 |    directions (solid angle) = 1.                   |
 |   -The volume coefficient (k) is equal to C * N    |
 |      = cross section * Number density              |
 |      typical units: [um^2]*[particles/cm^3] =      |
 |      [10^-3 km-1]                                  |
 |      N = M/(d*4/3*pi*r^3) where d is the density   |
 |      of particle, M is the mass per unit volume    |
 |      and 4/3*pi*r^3 is the average volume  of a    |
 |      particle.                                     |
 |      typical units:  M -> [ug/m^3], d -> [g/cm^3]  |
 |                      r -> [um]                     |
 |      Lidar ratio= 4 pi Qe / phase_fct(180)*Qs      |
 |----------------------------------------------------|
