 |--------|------------|
 | ANGLE  |  PHASE FCT |
 |--------|------------|
     0.00   23.274    
     1.00   23.201    
     2.00   22.984    
     3.00   22.629    
     4.00   22.147    
     5.00   21.551    
     6.00   20.854    
     7.00   20.075    
     8.00   19.229    
     9.00   18.334    
    10.00   17.406    
    11.00   16.458    
    12.00   15.506    
    13.00   14.559    
    14.00   13.629    
    15.00   12.722    
    16.00   11.847    
    17.00   11.006    
    18.00   10.205    
    19.00   9.4464    
    20.00   8.7305    
    21.00   8.0583    
    22.00   7.4296    
    23.00   6.8437    
    24.00   6.2994    
    25.00   5.7952    
    26.00   5.3292    
    27.00   4.8995    
    28.00   4.5040    
    29.00   4.1405    
    30.00   3.8069    
    31.00   3.5012    
    32.00   3.2212    
    33.00   2.9649    
    34.00   2.7306    
    35.00   2.5164    
    36.00   2.3207    
    37.00   2.1419    
    38.00   1.9785    
    39.00   1.8292    
    40.00   1.6927    
    41.00   1.5680    
    42.00   1.4539    
    43.00   1.3496    
    44.00   1.2540    
    45.00   1.1665    
    46.00   1.0863    
    47.00   1.0127    
    48.00  0.94511    
    49.00  0.88303    
    50.00  0.82595    
    51.00  0.77341    
    52.00  0.72501    
    53.00  0.68038    
    54.00  0.63920    
    55.00  0.60116    
    56.00  0.56598    
    57.00  0.53342    
    58.00  0.50326    
    59.00  0.47530    
    60.00  0.44934    
    61.00  0.42523    
    62.00  0.40281    
    63.00  0.38195    
    64.00  0.36252    
    65.00  0.34441    
    66.00  0.32752    
    67.00  0.31174    
    68.00  0.29700    
    69.00  0.28322    
    70.00  0.27032    
    71.00  0.25824    
    72.00  0.24692    
    73.00  0.23631    
    74.00  0.22636    
    75.00  0.21702    
    76.00  0.20824    
    77.00  0.19999    
    78.00  0.19224    
    79.00  0.18495    
    80.00  0.17809    
    81.00  0.17163    
    82.00  0.16555    
    83.00  0.15982    
    84.00  0.15443    
    85.00  0.14935    
    86.00  0.14456    
    87.00  0.14004    
    88.00  0.13579    
    89.00  0.13178    
    90.00  0.12800    
    91.00  0.12444    
    92.00  0.12109    
    93.00  0.11794    
    94.00  0.11497    
    95.00  0.11218    
    96.00  0.10955    
    97.00  0.10709    
    98.00  0.10478    
    99.00  0.10261    
   100.00  0.10059    
   101.00  0.98696E-01
   102.00  0.96933E-01
   103.00  0.95295E-01
   104.00  0.93776E-01
   105.00  0.92372E-01
   106.00  0.91079E-01
   107.00  0.89895E-01
   108.00  0.88817E-01
   109.00  0.87842E-01
   110.00  0.86967E-01
   111.00  0.86190E-01
   112.00  0.85511E-01
   113.00  0.84927E-01
   114.00  0.84436E-01
   115.00  0.84039E-01
   116.00  0.83735E-01
   117.00  0.83523E-01
   118.00  0.83403E-01
   119.00  0.83375E-01
   120.00  0.83440E-01
   121.00  0.83597E-01
   122.00  0.83848E-01
   123.00  0.84194E-01
   124.00  0.84635E-01
   125.00  0.85174E-01
   126.00  0.85810E-01
   127.00  0.86546E-01
   128.00  0.87383E-01
   129.00  0.88323E-01
   130.00  0.89368E-01
   131.00  0.90518E-01
   132.00  0.91777E-01
   133.00  0.93145E-01
   134.00  0.94622E-01
   135.00  0.96211E-01
   136.00  0.97911E-01
   137.00  0.99721E-01
   138.00  0.10164    
   139.00  0.10367    
   140.00  0.10580    
   141.00  0.10803    
   142.00  0.11036    
   143.00  0.11277    
   144.00  0.11526    
   145.00  0.11781    
   146.00  0.12040    
   147.00  0.12302    
   148.00  0.12565    
   149.00  0.12825    
   150.00  0.13079    
   151.00  0.13325    
   152.00  0.13557    
   153.00  0.13772    
   154.00  0.13964    
   155.00  0.14129    
   156.00  0.14262    
   157.00  0.14358    
   158.00  0.14413    
   159.00  0.14423    
   160.00  0.14387    
   161.00  0.14303    
   162.00  0.14175    
   163.00  0.14008    
   164.00  0.13809    
   165.00  0.13591    
   166.00  0.13370    
   167.00  0.13162    
   168.00  0.12988    
   169.00  0.12867    
   170.00  0.12818    
   171.00  0.12852    
   172.00  0.12976    
   173.00  0.13186    
   174.00  0.13469    
   175.00  0.13801    
   176.00  0.14148    
   177.00  0.14474    
   178.00  0.14740    
   179.00  0.14915    
   180.00  0.14975    
 |--------|------------|
0.370000     micron = Wavelength
 2.91037     = Extinction efficiency (Q)
 2.91037     = Scattering efficiency (Qs)
 0.00000     = Absorption efficiency (Qa)
 83.9137     = Lidar ratio
0.126655     micron^2 = <b> = Average surface area per particle
0.368615     microns^2 = Extinction cross section (C)
0.368615     microns^2 = Scattering cross section (Cs)
 0.00000     microns^2 = Absorption cross section (Ca)
 |----------------------------------------------------|
 | COMMENTAIRES:                                      |
 |----------------------------------------------------|
 |   -Cross section / <b> should = efficiency         |
 |    is independant of the normalisation of dN/dx    |
 |   -The integral of the phase fct / 4 pi over all   |
 |    directions (solid angle) = 1.                   |
 |   -The volume coefficient (k) is equal to C * N    |
 |      = cross section * Number density              |
 |      typical units: [um^2]*[particles/cm^3] =      |
 |      [10^-3 km-1]                                  |
 |      N = M/(d*4/3*pi*r^3) where d is the density   |
 |      of particle, M is the mass per unit volume    |
 |      and 4/3*pi*r^3 is the average volume  of a    |
 |      particle.                                     |
 |      typical units:  M -> [ug/m^3], d -> [g/cm^3]  |
 |                      r -> [um]                     |
 |      Lidar ratio= 4 pi Qe / phase_fct(180)*Qs      |
 |----------------------------------------------------|
