 |--------|------------|
 | ANGLE  |  PHASE FCT |
 |--------|------------|
     0.00   57.259    
     1.00   56.544    
     2.00   54.483    
     3.00   51.315    
     4.00   47.363    
     5.00   42.968    
     6.00   38.434    
     7.00   33.998    
     8.00   29.826    
     9.00   26.017    
    10.00   22.620    
    11.00   19.641    
    12.00   17.064    
    13.00   14.855    
    14.00   12.975    
    15.00   11.382    
    16.00   10.033    
    17.00   8.8918    
    18.00   7.9236    
    19.00   7.0995    
    20.00   6.3946    
    21.00   5.7882    
    22.00   5.2631    
    23.00   4.8053    
    24.00   4.4033    
    25.00   4.0478    
    26.00   3.7314    
    27.00   3.4479    
    28.00   3.1925    
    29.00   2.9611    
    30.00   2.7507    
    31.00   2.5585    
    32.00   2.3824    
    33.00   2.2205    
    34.00   2.0714    
    35.00   1.9338    
    36.00   1.8065    
    37.00   1.6887    
    38.00   1.5794    
    39.00   1.4781    
    40.00   1.3840    
    41.00   1.2966    
    42.00   1.2153    
    43.00   1.1397    
    44.00   1.0694    
    45.00   1.0039    
    46.00  0.94290    
    47.00  0.88609    
    48.00  0.83316    
    49.00  0.78382    
    50.00  0.73782    
    51.00  0.69492    
    52.00  0.65489    
    53.00  0.61753    
    54.00  0.58266    
    55.00  0.55008    
    56.00  0.51966    
    57.00  0.49124    
    58.00  0.46466    
    59.00  0.43982    
    60.00  0.41658    
    61.00  0.39484    
    62.00  0.37449    
    63.00  0.35544    
    64.00  0.33760    
    65.00  0.32089    
    66.00  0.30524    
    67.00  0.29057    
    68.00  0.27682    
    69.00  0.26392    
    70.00  0.25183    
    71.00  0.24049    
    72.00  0.22985    
    73.00  0.21986    
    74.00  0.21049    
    75.00  0.20170    
    76.00  0.19344    
    77.00  0.18569    
    78.00  0.17841    
    79.00  0.17158    
    80.00  0.16517    
    81.00  0.15916    
    82.00  0.15351    
    83.00  0.14821    
    84.00  0.14323    
    85.00  0.13857    
    86.00  0.13419    
    87.00  0.13009    
    88.00  0.12625    
    89.00  0.12265    
    90.00  0.11929    
    91.00  0.11614    
    92.00  0.11320    
    93.00  0.11045    
    94.00  0.10790    
    95.00  0.10552    
    96.00  0.10331    
    97.00  0.10127    
    98.00  0.99382E-01
    99.00  0.97643E-01
   100.00  0.96049E-01
   101.00  0.94594E-01
   102.00  0.93275E-01
   103.00  0.92087E-01
   104.00  0.91027E-01
   105.00  0.90093E-01
   106.00  0.89282E-01
   107.00  0.88593E-01
   108.00  0.88025E-01
   109.00  0.87578E-01
   110.00  0.87251E-01
   111.00  0.87044E-01
   112.00  0.86960E-01
   113.00  0.86998E-01
   114.00  0.87161E-01
   115.00  0.87452E-01
   116.00  0.87872E-01
   117.00  0.88425E-01
   118.00  0.89115E-01
   119.00  0.89944E-01
   120.00  0.90918E-01
   121.00  0.92040E-01
   122.00  0.93315E-01
   123.00  0.94747E-01
   124.00  0.96341E-01
   125.00  0.98103E-01
   126.00  0.10004    
   127.00  0.10214    
   128.00  0.10443    
   129.00  0.10690    
   130.00  0.10955    
   131.00  0.11239    
   132.00  0.11542    
   133.00  0.11863    
   134.00  0.12202    
   135.00  0.12559    
   136.00  0.12933    
   137.00  0.13324    
   138.00  0.13729    
   139.00  0.14147    
   140.00  0.14578    
   141.00  0.15019    
   142.00  0.15468    
   143.00  0.15923    
   144.00  0.16383    
   145.00  0.16846    
   146.00  0.17310    
   147.00  0.17774    
   148.00  0.18238    
   149.00  0.18703    
   150.00  0.19169    
   151.00  0.19641    
   152.00  0.20122    
   153.00  0.20618    
   154.00  0.21136    
   155.00  0.21683    
   156.00  0.22267    
   157.00  0.22893    
   158.00  0.23564    
   159.00  0.24274    
   160.00  0.25009    
   161.00  0.25742    
   162.00  0.26428    
   163.00  0.27005    
   164.00  0.27389    
   165.00  0.27485    
   166.00  0.27194    
   167.00  0.26434    
   168.00  0.25163    
   169.00  0.23409    
   170.00  0.21298    
   171.00  0.19064    
   172.00  0.17034    
   173.00  0.15579    
   174.00  0.15031    
   175.00  0.15572    
   176.00  0.17145    
   177.00  0.19408    
   178.00  0.21774    
   179.00  0.23566    
   180.00  0.24234    
 |--------|------------|
0.490000     micron = Wavelength
 2.91536     = Extinction efficiency (Q)
 2.91536     = Scattering efficiency (Qs)
 0.00000     = Absorption efficiency (Qa)
 51.8544     = Lidar ratio
0.917852     micron^2 = <b> = Average surface area per particle
 2.67587     microns^2 = Extinction cross section (C)
 2.67587     microns^2 = Scattering cross section (Cs)
 0.00000     microns^2 = Absorption cross section (Ca)
 |----------------------------------------------------|
 | COMMENTAIRES:                                      |
 |----------------------------------------------------|
 |   -Cross section / <b> should = efficiency         |
 |    is independant of the normalisation of dN/dx    |
 |   -The integral of the phase fct / 4 pi over all   |
 |    directions (solid angle) = 1.                   |
 |   -The volume coefficient (k) is equal to C * N    |
 |      = cross section * Number density              |
 |      typical units: [um^2]*[particles/cm^3] =      |
 |      [10^-3 km-1]                                  |
 |      N = M/(d*4/3*pi*r^3) where d is the density   |
 |      of particle, M is the mass per unit volume    |
 |      and 4/3*pi*r^3 is the average volume  of a    |
 |      particle.                                     |
 |      typical units:  M -> [ug/m^3], d -> [g/cm^3]  |
 |                      r -> [um]                     |
 |      Lidar ratio= 4 pi Qe / phase_fct(180)*Qs      |
 |----------------------------------------------------|
