 |--------|------------|
 | ANGLE  |  PHASE FCT |
 |--------|------------|
     0.00   12.969    
     1.00   12.950    
     2.00   12.893    
     3.00   12.798    
     4.00   12.668    
     5.00   12.503    
     6.00   12.305    
     7.00   12.078    
     8.00   11.823    
     9.00   11.543    
    10.00   11.241    
    11.00   10.920    
    12.00   10.583    
    13.00   10.234    
    14.00   9.8740    
    15.00   9.5071    
    16.00   9.1355    
    17.00   8.7618    
    18.00   8.3883    
    19.00   8.0169    
    20.00   7.6495    
    21.00   7.2878    
    22.00   6.9332    
    23.00   6.5869    
    24.00   6.2500    
    25.00   5.9233    
    26.00   5.6075    
    27.00   5.3030    
    28.00   5.0103    
    29.00   4.7296    
    30.00   4.4610    
    31.00   4.2046    
    32.00   3.9603    
    33.00   3.7279    
    34.00   3.5073    
    35.00   3.2981    
    36.00   3.1001    
    37.00   2.9129    
    38.00   2.7362    
    39.00   2.5696    
    40.00   2.4126    
    41.00   2.2648    
    42.00   2.1259    
    43.00   1.9954    
    44.00   1.8728    
    45.00   1.7579    
    46.00   1.6501    
    47.00   1.5491    
    48.00   1.4545    
    49.00   1.3659    
    50.00   1.2831    
    51.00   1.2055    
    52.00   1.1330    
    53.00   1.0652    
    54.00   1.0019    
    55.00  0.94263    
    56.00  0.88727    
    57.00  0.83555    
    58.00  0.78721    
    59.00  0.74205    
    60.00  0.69984    
    61.00  0.66041    
    62.00  0.62355    
    63.00  0.58910    
    64.00  0.55691    
    65.00  0.52681    
    66.00  0.49866    
    67.00  0.47234    
    68.00  0.44772    
    69.00  0.42468    
    70.00  0.40313    
    71.00  0.38295    
    72.00  0.36405    
    73.00  0.34635    
    74.00  0.32977    
    75.00  0.31424    
    76.00  0.29967    
    77.00  0.28601    
    78.00  0.27320    
    79.00  0.26118    
    80.00  0.24990    
    81.00  0.23931    
    82.00  0.22937    
    83.00  0.22002    
    84.00  0.21124    
    85.00  0.20299    
    86.00  0.19523    
    87.00  0.18794    
    88.00  0.18108    
    89.00  0.17462    
    90.00  0.16855    
    91.00  0.16284    
    92.00  0.15746    
    93.00  0.15240    
    94.00  0.14763    
    95.00  0.14315    
    96.00  0.13893    
    97.00  0.13496    
    98.00  0.13123    
    99.00  0.12772    
   100.00  0.12441    
   101.00  0.12131    
   102.00  0.11840    
   103.00  0.11566    
   104.00  0.11309    
   105.00  0.11069    
   106.00  0.10844    
   107.00  0.10633    
   108.00  0.10437    
   109.00  0.10254    
   110.00  0.10083    
   111.00  0.99248E-01
   112.00  0.97783E-01
   113.00  0.96429E-01
   114.00  0.95185E-01
   115.00  0.94044E-01
   116.00  0.93003E-01
   117.00  0.92060E-01
   118.00  0.91210E-01
   119.00  0.90452E-01
   120.00  0.89781E-01
   121.00  0.89195E-01
   122.00  0.88693E-01
   123.00  0.88271E-01
   124.00  0.87928E-01
   125.00  0.87661E-01
   126.00  0.87470E-01
   127.00  0.87351E-01
   128.00  0.87303E-01
   129.00  0.87325E-01
   130.00  0.87415E-01
   131.00  0.87572E-01
   132.00  0.87793E-01
   133.00  0.88078E-01
   134.00  0.88424E-01
   135.00  0.88832E-01
   136.00  0.89297E-01
   137.00  0.89820E-01
   138.00  0.90399E-01
   139.00  0.91032E-01
   140.00  0.91718E-01
   141.00  0.92454E-01
   142.00  0.93239E-01
   143.00  0.94071E-01
   144.00  0.94949E-01
   145.00  0.95870E-01
   146.00  0.96834E-01
   147.00  0.97837E-01
   148.00  0.98880E-01
   149.00  0.99960E-01
   150.00  0.10108    
   151.00  0.10223    
   152.00  0.10341    
   153.00  0.10463    
   154.00  0.10589    
   155.00  0.10718    
   156.00  0.10850    
   157.00  0.10987    
   158.00  0.11127    
   159.00  0.11271    
   160.00  0.11420    
   161.00  0.11573    
   162.00  0.11731    
   163.00  0.11894    
   164.00  0.12062    
   165.00  0.12234    
   166.00  0.12412    
   167.00  0.12592    
   168.00  0.12776    
   169.00  0.12961    
   170.00  0.13146    
   171.00  0.13327    
   172.00  0.13503    
   173.00  0.13671    
   174.00  0.13826    
   175.00  0.13965    
   176.00  0.14085    
   177.00  0.14182    
   178.00  0.14254    
   179.00  0.14298    
   180.00  0.14312    
 |--------|------------|
0.630000     micron = Wavelength
 1.54327     = Extinction efficiency (Q)
 1.54327     = Scattering efficiency (Qs)
 0.00000     = Absorption efficiency (Qa)
 87.8006     = Lidar ratio
0.126655     micron^2 = <b> = Average surface area per particle
0.195463     microns^2 = Extinction cross section (C)
0.195463     microns^2 = Scattering cross section (Cs)
 0.00000     microns^2 = Absorption cross section (Ca)
 |----------------------------------------------------|
 | COMMENTAIRES:                                      |
 |----------------------------------------------------|
 |   -Cross section / <b> should = efficiency         |
 |    is independant of the normalisation of dN/dx    |
 |   -The integral of the phase fct / 4 pi over all   |
 |    directions (solid angle) = 1.                   |
 |   -The volume coefficient (k) is equal to C * N    |
 |      = cross section * Number density              |
 |      typical units: [um^2]*[particles/cm^3] =      |
 |      [10^-3 km-1]                                  |
 |      N = M/(d*4/3*pi*r^3) where d is the density   |
 |      of particle, M is the mass per unit volume    |
 |      and 4/3*pi*r^3 is the average volume  of a    |
 |      particle.                                     |
 |      typical units:  M -> [ug/m^3], d -> [g/cm^3]  |
 |                      r -> [um]                     |
 |      Lidar ratio= 4 pi Qe / phase_fct(180)*Qs      |
 |----------------------------------------------------|
