 |--------|------------|
 | ANGLE  |  PHASE FCT |
 |--------|------------|
     0.00   70.797    
     1.00   69.609    
     2.00   66.230    
     3.00   61.154    
     4.00   55.019    
     5.00   48.454    
     6.00   41.967    
     7.00   35.904    
     8.00   30.465    
     9.00   25.734    
    10.00   21.713    
    11.00   18.353    
    12.00   15.580    
    13.00   13.311    
    14.00   11.464    
    15.00   9.9623    
    16.00   8.7396    
    17.00   7.7401    
    18.00   6.9172    
    19.00   6.2336    
    20.00   5.6597    
    21.00   5.1720    
    22.00   4.7522    
    23.00   4.3864    
    24.00   4.0638    
    25.00   3.7761    
    26.00   3.5170    
    27.00   3.2817    
    28.00   3.0665    
    29.00   2.8685    
    30.00   2.6856    
    31.00   2.5159    
    32.00   2.3581    
    33.00   2.2111    
    34.00   2.0740    
    35.00   1.9459    
    36.00   1.8262    
    37.00   1.7142    
    38.00   1.6095    
    39.00   1.5115    
    40.00   1.4199    
    41.00   1.3342    
    42.00   1.2540    
    43.00   1.1789    
    44.00   1.1088    
    45.00   1.0431    
    46.00  0.98171    
    47.00  0.92427    
    48.00  0.87054    
    49.00  0.82028    
    50.00  0.77325    
    51.00  0.72925    
    52.00  0.68809    
    53.00  0.64956    
    54.00  0.61350    
    55.00  0.57973    
    56.00  0.54812    
    57.00  0.51851    
    58.00  0.49078    
    59.00  0.46479    
    60.00  0.44044    
    61.00  0.41762    
    62.00  0.39622    
    63.00  0.37616    
    64.00  0.35734    
    65.00  0.33968    
    66.00  0.32312    
    67.00  0.30758    
    68.00  0.29299    
    69.00  0.27930    
    70.00  0.26644    
    71.00  0.25437    
    72.00  0.24304    
    73.00  0.23240    
    74.00  0.22240    
    75.00  0.21302    
    76.00  0.20420    
    77.00  0.19593    
    78.00  0.18815    
    79.00  0.18085    
    80.00  0.17400    
    81.00  0.16756    
    82.00  0.16152    
    83.00  0.15586    
    84.00  0.15054    
    85.00  0.14555    
    86.00  0.14088    
    87.00  0.13650    
    88.00  0.13240    
    89.00  0.12856    
    90.00  0.12496    
    91.00  0.12161    
    92.00  0.11848    
    93.00  0.11555    
    94.00  0.11283    
    95.00  0.11030    
    96.00  0.10795    
    97.00  0.10577    
    98.00  0.10376    
    99.00  0.10191    
   100.00  0.10022    
   101.00  0.98671E-01
   102.00  0.97268E-01
   103.00  0.96005E-01
   104.00  0.94879E-01
   105.00  0.93888E-01
   106.00  0.93029E-01
   107.00  0.92302E-01
   108.00  0.91704E-01
   109.00  0.91239E-01
   110.00  0.90904E-01
   111.00  0.90704E-01
   112.00  0.90639E-01
   113.00  0.90712E-01
   114.00  0.90925E-01
   115.00  0.91285E-01
   116.00  0.91795E-01
   117.00  0.92460E-01
   118.00  0.93287E-01
   119.00  0.94281E-01
   120.00  0.95451E-01
   121.00  0.96802E-01
   122.00  0.98343E-01
   123.00  0.10008    
   124.00  0.10203    
   125.00  0.10419    
   126.00  0.10657    
   127.00  0.10918    
   128.00  0.11204    
   129.00  0.11513    
   130.00  0.11848    
   131.00  0.12208    
   132.00  0.12593    
   133.00  0.13004    
   134.00  0.13441    
   135.00  0.13901    
   136.00  0.14386    
   137.00  0.14892    
   138.00  0.15419    
   139.00  0.15963    
   140.00  0.16521    
   141.00  0.17091    
   142.00  0.17669    
   143.00  0.18250    
   144.00  0.18831    
   145.00  0.19406    
   146.00  0.19973    
   147.00  0.20526    
   148.00  0.21065    
   149.00  0.21586    
   150.00  0.22092    
   151.00  0.22585    
   152.00  0.23071    
   153.00  0.23560    
   154.00  0.24062    
   155.00  0.24596    
   156.00  0.25179    
   157.00  0.25832    
   158.00  0.26574    
   159.00  0.27420    
   160.00  0.28375    
   161.00  0.29426    
   162.00  0.30538    
   163.00  0.31645    
   164.00  0.32643    
   165.00  0.33392    
   166.00  0.33726    
   167.00  0.33472    
   168.00  0.32493    
   169.00  0.30738    
   170.00  0.28293    
   171.00  0.25427    
   172.00  0.22596    
   173.00  0.20382    
   174.00  0.19369    
   175.00  0.19967    
   176.00  0.22223    
   177.00  0.25695    
   178.00  0.29474    
   179.00  0.32409    
   180.00  0.33517    
 |--------|------------|
0.430000     micron = Wavelength
 2.75133     = Extinction efficiency (Q)
 2.75133     = Scattering efficiency (Qs)
 0.00000     = Absorption efficiency (Qa)
 37.4926     = Lidar ratio
0.917847     micron^2 = <b> = Average surface area per particle
 2.52530     microns^2 = Extinction cross section (C)
 2.52530     microns^2 = Scattering cross section (Cs)
 0.00000     microns^2 = Absorption cross section (Ca)
 |----------------------------------------------------|
 | COMMENTAIRES:                                      |
 |----------------------------------------------------|
 |   -Cross section / <b> should = efficiency         |
 |    is independant of the normalisation of dN/dx    |
 |   -The integral of the phase fct / 4 pi over all   |
 |    directions (solid angle) = 1.                   |
 |   -The volume coefficient (k) is equal to C * N    |
 |      = cross section * Number density              |
 |      typical units: [um^2]*[particles/cm^3] =      |
 |      [10^-3 km-1]                                  |
 |      N = M/(d*4/3*pi*r^3) where d is the density   |
 |      of particle, M is the mass per unit volume    |
 |      and 4/3*pi*r^3 is the average volume  of a    |
 |      particle.                                     |
 |      typical units:  M -> [ug/m^3], d -> [g/cm^3]  |
 |                      r -> [um]                     |
 |      Lidar ratio= 4 pi Qe / phase_fct(180)*Qs      |
 |----------------------------------------------------|
