 |--------|------------|
 | ANGLE  |  PHASE FCT |
 |--------|------------|
     0.00   34.375    
     1.00   34.193    
     2.00   33.658    
     3.00   32.795    
     4.00   31.647    
     5.00   30.265    
     6.00   28.703    
     7.00   27.017    
     8.00   25.258    
     9.00   23.471    
    10.00   21.697    
    11.00   19.964    
    12.00   18.298    
    13.00   16.715    
    14.00   15.226    
    15.00   13.839    
    16.00   12.555    
    17.00   11.375    
    18.00   10.296    
    19.00   9.3133    
    20.00   8.4221    
    21.00   7.6160    
    22.00   6.8888    
    23.00   6.2340    
    24.00   5.6452    
    25.00   5.1164    
    26.00   4.6418    
    27.00   4.2160    
    28.00   3.8340    
    29.00   3.4912    
    30.00   3.1835    
    31.00   2.9070    
    32.00   2.6586    
    33.00   2.4350    
    34.00   2.2337    
    35.00   2.0520    
    36.00   1.8880    
    37.00   1.7397    
    38.00   1.6054    
    39.00   1.4836    
    40.00   1.3731    
    41.00   1.2725    
    42.00   1.1809    
    43.00   1.0973    
    44.00   1.0209    
    45.00  0.95105    
    46.00  0.88706    
    47.00  0.82834    
    48.00  0.77439    
    49.00  0.72478    
    50.00  0.67908    
    51.00  0.63694    
    52.00  0.59804    
    53.00  0.56208    
    54.00  0.52881    
    55.00  0.49800    
    56.00  0.46943    
    57.00  0.44293    
    58.00  0.41830    
    59.00  0.39541    
    60.00  0.37412    
    61.00  0.35429    
    62.00  0.33581    
    63.00  0.31858    
    64.00  0.30251    
    65.00  0.28749    
    66.00  0.27346    
    67.00  0.26035    
    68.00  0.24808    
    69.00  0.23660    
    70.00  0.22585    
    71.00  0.21578    
    72.00  0.20634    
    73.00  0.19748    
    74.00  0.18918    
    75.00  0.18139    
    76.00  0.17407    
    77.00  0.16720    
    78.00  0.16075    
    79.00  0.15469    
    80.00  0.14899    
    81.00  0.14363    
    82.00  0.13860    
    83.00  0.13386    
    84.00  0.12941    
    85.00  0.12523    
    86.00  0.12130    
    87.00  0.11760    
    88.00  0.11412    
    89.00  0.11086    
    90.00  0.10779    
    91.00  0.10491    
    92.00  0.10221    
    93.00  0.99676E-01
    94.00  0.97303E-01
    95.00  0.95082E-01
    96.00  0.93005E-01
    97.00  0.91066E-01
    98.00  0.89260E-01
    99.00  0.87579E-01
   100.00  0.86019E-01
   101.00  0.84576E-01
   102.00  0.83244E-01
   103.00  0.82021E-01
   104.00  0.80902E-01
   105.00  0.79884E-01
   106.00  0.78965E-01
   107.00  0.78140E-01
   108.00  0.77409E-01
   109.00  0.76770E-01
   110.00  0.76220E-01
   111.00  0.75759E-01
   112.00  0.75385E-01
   113.00  0.75097E-01
   114.00  0.74894E-01
   115.00  0.74777E-01
   116.00  0.74744E-01
   117.00  0.74797E-01
   118.00  0.74934E-01
   119.00  0.75157E-01
   120.00  0.75465E-01
   121.00  0.75860E-01
   122.00  0.76343E-01
   123.00  0.76914E-01
   124.00  0.77574E-01
   125.00  0.78326E-01
   126.00  0.79169E-01
   127.00  0.80107E-01
   128.00  0.81139E-01
   129.00  0.82268E-01
   130.00  0.83495E-01
   131.00  0.84822E-01
   132.00  0.86251E-01
   133.00  0.87782E-01
   134.00  0.89418E-01
   135.00  0.91160E-01
   136.00  0.93009E-01
   137.00  0.94966E-01
   138.00  0.97032E-01
   139.00  0.99207E-01
   140.00  0.10149    
   141.00  0.10389    
   142.00  0.10639    
   143.00  0.10900    
   144.00  0.11172    
   145.00  0.11453    
   146.00  0.11745    
   147.00  0.12045    
   148.00  0.12354    
   149.00  0.12669    
   150.00  0.12990    
   151.00  0.13313    
   152.00  0.13636    
   153.00  0.13956    
   154.00  0.14266    
   155.00  0.14562    
   156.00  0.14836    
   157.00  0.15079    
   158.00  0.15280    
   159.00  0.15427    
   160.00  0.15506    
   161.00  0.15504    
   162.00  0.15407    
   163.00  0.15204    
   164.00  0.14886    
   165.00  0.14454    
   166.00  0.13914    
   167.00  0.13286    
   168.00  0.12605    
   169.00  0.11915    
   170.00  0.11275    
   171.00  0.10747    
   172.00  0.10389    
   173.00  0.10245    
   174.00  0.10334    
   175.00  0.10635    
   176.00  0.11094    
   177.00  0.11619    
   178.00  0.12104    
   179.00  0.12445    
   180.00  0.12568    
 |--------|------------|
0.610000     micron = Wavelength
 3.10119     = Extinction efficiency (Q)
 3.10119     = Scattering efficiency (Qs)
 0.00000     = Absorption efficiency (Qa)
 99.9847     = Lidar ratio
0.625715     micron^2 = <b> = Average surface area per particle
 1.94046     microns^2 = Extinction cross section (C)
 1.94046     microns^2 = Scattering cross section (Cs)
 0.00000     microns^2 = Absorption cross section (Ca)
 |----------------------------------------------------|
 | COMMENTAIRES:                                      |
 |----------------------------------------------------|
 |   -Cross section / <b> should = efficiency         |
 |    is independant of the normalisation of dN/dx    |
 |   -The integral of the phase fct / 4 pi over all   |
 |    directions (solid angle) = 1.                   |
 |   -The volume coefficient (k) is equal to C * N    |
 |      = cross section * Number density              |
 |      typical units: [um^2]*[particles/cm^3] =      |
 |      [10^-3 km-1]                                  |
 |      N = M/(d*4/3*pi*r^3) where d is the density   |
 |      of particle, M is the mass per unit volume    |
 |      and 4/3*pi*r^3 is the average volume  of a    |
 |      particle.                                     |
 |      typical units:  M -> [ug/m^3], d -> [g/cm^3]  |
 |                      r -> [um]                     |
 |      Lidar ratio= 4 pi Qe / phase_fct(180)*Qs      |
 |----------------------------------------------------|
