 |--------|------------|
 | ANGLE  |  PHASE FCT |
 |--------|------------|
     0.00   112.26    
     1.00   109.14    
     2.00   100.51    
     3.00   88.236    
     4.00   74.488    
     5.00   61.047    
     6.00   49.006    
     7.00   38.840    
     8.00   30.609    
     9.00   24.147    
    10.00   19.182    
    11.00   15.422    
    12.00   12.600    
    13.00   10.490    
    14.00   8.9111    
    15.00   7.7209    
    16.00   6.8133    
    17.00   6.1092    
    18.00   5.5508    
    19.00   5.0972    
    20.00   4.7190    
    21.00   4.3954    
    22.00   4.1119    
    23.00   3.8585    
    24.00   3.6283    
    25.00   3.4166    
    26.00   3.2199    
    27.00   3.0359    
    28.00   2.8631    
    29.00   2.7003    
    30.00   2.5466    
    31.00   2.4013    
    32.00   2.2641    
    33.00   2.1344    
    34.00   2.0118    
    35.00   1.8960    
    36.00   1.7867    
    37.00   1.6837    
    38.00   1.5865    
    39.00   1.4949    
    40.00   1.4087    
    41.00   1.3275    
    42.00   1.2512    
    43.00   1.1793    
    44.00   1.1118    
    45.00   1.0483    
    46.00  0.98863    
    47.00  0.93257    
    48.00  0.87992    
    49.00  0.83047    
    50.00  0.78401    
    51.00  0.74038    
    52.00  0.69942    
    53.00  0.66095    
    54.00  0.62481    
    55.00  0.59087    
    56.00  0.55899    
    57.00  0.52905    
    58.00  0.50092    
    59.00  0.47449    
    60.00  0.44965    
    61.00  0.42631    
    62.00  0.40438    
    63.00  0.38377    
    64.00  0.36439    
    65.00  0.34617    
    66.00  0.32904    
    67.00  0.31294    
    68.00  0.29780    
    69.00  0.28356    
    70.00  0.27017    
    71.00  0.25758    
    72.00  0.24575    
    73.00  0.23462    
    74.00  0.22415    
    75.00  0.21432    
    76.00  0.20508    
    77.00  0.19640    
    78.00  0.18824    
    79.00  0.18058    
    80.00  0.17339    
    81.00  0.16664    
    82.00  0.16031    
    83.00  0.15437    
    84.00  0.14881    
    85.00  0.14360    
    86.00  0.13873    
    87.00  0.13417    
    88.00  0.12991    
    89.00  0.12594    
    90.00  0.12223    
    91.00  0.11877    
    92.00  0.11556    
    93.00  0.11257    
    94.00  0.10981    
    95.00  0.10724    
    96.00  0.10487    
    97.00  0.10269    
    98.00  0.10069    
    99.00  0.98849E-01
   100.00  0.97175E-01
   101.00  0.95657E-01
   102.00  0.94287E-01
   103.00  0.93063E-01
   104.00  0.91982E-01
   105.00  0.91038E-01
   106.00  0.90230E-01
   107.00  0.89557E-01
   108.00  0.89018E-01
   109.00  0.88615E-01
   110.00  0.88350E-01
   111.00  0.88225E-01
   112.00  0.88245E-01
   113.00  0.88413E-01
   114.00  0.88736E-01
   115.00  0.89225E-01
   116.00  0.89887E-01
   117.00  0.90730E-01
   118.00  0.91765E-01
   119.00  0.93008E-01
   120.00  0.94471E-01
   121.00  0.96167E-01
   122.00  0.98112E-01
   123.00  0.10032    
   124.00  0.10282    
   125.00  0.10562    
   126.00  0.10874    
   127.00  0.11219    
   128.00  0.11599    
   129.00  0.12016    
   130.00  0.12472    
   131.00  0.12966    
   132.00  0.13500    
   133.00  0.14074    
   134.00  0.14688    
   135.00  0.15339    
   136.00  0.16026    
   137.00  0.16745    
   138.00  0.17492    
   139.00  0.18261    
   140.00  0.19045    
   141.00  0.19836    
   142.00  0.20625    
   143.00  0.21400    
   144.00  0.22151    
   145.00  0.22866    
   146.00  0.23534    
   147.00  0.24144    
   148.00  0.24686    
   149.00  0.25154    
   150.00  0.25545    
   151.00  0.25860    
   152.00  0.26105    
   153.00  0.26294    
   154.00  0.26448    
   155.00  0.26596    
   156.00  0.26776    
   157.00  0.27036    
   158.00  0.27430    
   159.00  0.28020    
   160.00  0.28871    
   161.00  0.30038    
   162.00  0.31561    
   163.00  0.33441    
   164.00  0.35622    
   165.00  0.37968    
   166.00  0.40243    
   167.00  0.42121    
   168.00  0.43212    
   169.00  0.43146    
   170.00  0.41697    
   171.00  0.38928    
   172.00  0.35304    
   173.00  0.31711    
   174.00  0.29313    
   175.00  0.29237    
   176.00  0.32146    
   177.00  0.37806    
   178.00  0.44775    
   179.00  0.50616    
   180.00  0.52905    
 |--------|------------|
0.440000     micron = Wavelength
 2.50272     = Extinction efficiency (Q)
 2.50272     = Scattering efficiency (Qs)
 0.00000     = Absorption efficiency (Qa)
 23.7526     = Lidar ratio
 1.56974     micron^2 = <b> = Average surface area per particle
 3.92862     microns^2 = Extinction cross section (C)
 3.92862     microns^2 = Scattering cross section (Cs)
 0.00000     microns^2 = Absorption cross section (Ca)
 |----------------------------------------------------|
 | COMMENTAIRES:                                      |
 |----------------------------------------------------|
 |   -Cross section / <b> should = efficiency         |
 |    is independant of the normalisation of dN/dx    |
 |   -The integral of the phase fct / 4 pi over all   |
 |    directions (solid angle) = 1.                   |
 |   -The volume coefficient (k) is equal to C * N    |
 |      = cross section * Number density              |
 |      typical units: [um^2]*[particles/cm^3] =      |
 |      [10^-3 km-1]                                  |
 |      N = M/(d*4/3*pi*r^3) where d is the density   |
 |      of particle, M is the mass per unit volume    |
 |      and 4/3*pi*r^3 is the average volume  of a    |
 |      particle.                                     |
 |      typical units:  M -> [ug/m^3], d -> [g/cm^3]  |
 |                      r -> [um]                     |
 |      Lidar ratio= 4 pi Qe / phase_fct(180)*Qs      |
 |----------------------------------------------------|
