 |--------|------------|
 | ANGLE  |  PHASE FCT |
 |--------|------------|
     0.00   42.682    
     1.00   42.347    
     2.00   41.368    
     3.00   39.820    
     4.00   37.812    
     5.00   35.467    
     6.00   32.912    
     7.00   30.261    
     8.00   27.610    
     9.00   25.032    
    10.00   22.581    
    11.00   20.291    
    12.00   18.183    
    13.00   16.265    
    14.00   14.535    
    15.00   12.985    
    16.00   11.604    
    17.00   10.379    
    18.00   9.2959    
    19.00   8.3393    
    20.00   7.4955    
    21.00   6.7513    
    22.00   6.0945    
    23.00   5.5143    
    24.00   5.0010    
    25.00   4.5460    
    26.00   4.1418    
    27.00   3.7819    
    28.00   3.4607    
    29.00   3.1732    
    30.00   2.9152    
    31.00   2.6831    
    32.00   2.4737    
    33.00   2.2844    
    34.00   2.1128    
    35.00   1.9568    
    36.00   1.8148    
    37.00   1.6853    
    38.00   1.5668    
    39.00   1.4583    
    40.00   1.3588    
    41.00   1.2674    
    42.00   1.1832    
    43.00   1.1057    
    44.00   1.0342    
    45.00  0.96819    
    46.00  0.90713    
    47.00  0.85063    
    48.00  0.79829    
    49.00  0.74977    
    50.00  0.70474    
    51.00  0.66293    
    52.00  0.62409    
    53.00  0.58796    
    54.00  0.55435    
    55.00  0.52305    
    56.00  0.49389    
    57.00  0.46671    
    58.00  0.44136    
    59.00  0.41771    
    60.00  0.39563    
    61.00  0.37500    
    62.00  0.35572    
    63.00  0.33770    
    64.00  0.32084    
    65.00  0.30507    
    66.00  0.29030    
    67.00  0.27648    
    68.00  0.26352    
    69.00  0.25138    
    70.00  0.24001    
    71.00  0.22934    
    72.00  0.21933    
    73.00  0.20994    
    74.00  0.20112    
    75.00  0.19285    
    76.00  0.18508    
    77.00  0.17778    
    78.00  0.17093    
    79.00  0.16449    
    80.00  0.15844    
    81.00  0.15276    
    82.00  0.14741    
    83.00  0.14240    
    84.00  0.13768    
    85.00  0.13325    
    86.00  0.12909    
    87.00  0.12518    
    88.00  0.12151    
    89.00  0.11807    
    90.00  0.11484    
    91.00  0.11182    
    92.00  0.10898    
    93.00  0.10633    
    94.00  0.10385    
    95.00  0.10153    
    96.00  0.99376E-01
    97.00  0.97368E-01
    98.00  0.95504E-01
    99.00  0.93777E-01
   100.00  0.92183E-01
   101.00  0.90717E-01
   102.00  0.89375E-01
   103.00  0.88152E-01
   104.00  0.87046E-01
   105.00  0.86052E-01
   106.00  0.85170E-01
   107.00  0.84396E-01
   108.00  0.83729E-01
   109.00  0.83168E-01
   110.00  0.82711E-01
   111.00  0.82358E-01
   112.00  0.82107E-01
   113.00  0.81961E-01
   114.00  0.81917E-01
   115.00  0.81978E-01
   116.00  0.82143E-01
   117.00  0.82414E-01
   118.00  0.82792E-01
   119.00  0.83279E-01
   120.00  0.83876E-01
   121.00  0.84586E-01
   122.00  0.85410E-01
   123.00  0.86351E-01
   124.00  0.87411E-01
   125.00  0.88593E-01
   126.00  0.89898E-01
   127.00  0.91331E-01
   128.00  0.92893E-01
   129.00  0.94586E-01
   130.00  0.96412E-01
   131.00  0.98374E-01
   132.00  0.10047    
   133.00  0.10271    
   134.00  0.10509    
   135.00  0.10761    
   136.00  0.11026    
   137.00  0.11306    
   138.00  0.11600    
   139.00  0.11907    
   140.00  0.12229    
   141.00  0.12563    
   142.00  0.12911    
   143.00  0.13272    
   144.00  0.13646    
   145.00  0.14032    
   146.00  0.14432    
   147.00  0.14844    
   148.00  0.15269    
   149.00  0.15706    
   150.00  0.16157    
   151.00  0.16620    
   152.00  0.17095    
   153.00  0.17581    
   154.00  0.18076    
   155.00  0.18576    
   156.00  0.19074    
   157.00  0.19562    
   158.00  0.20026    
   159.00  0.20449    
   160.00  0.20806    
   161.00  0.21069    
   162.00  0.21203    
   163.00  0.21170    
   164.00  0.20932    
   165.00  0.20457    
   166.00  0.19725    
   167.00  0.18739    
   168.00  0.17531    
   169.00  0.16175    
   170.00  0.14780    
   171.00  0.13492    
   172.00  0.12472    
   173.00  0.11867    
   174.00  0.11776    
   175.00  0.12215    
   176.00  0.13092    
   177.00  0.14213    
   178.00  0.15311    
   179.00  0.16110    
   180.00  0.16402    
 |--------|------------|
0.500000     micron = Wavelength
 3.10087     = Extinction efficiency (Q)
 3.10087     = Scattering efficiency (Qs)
 0.00000     = Absorption efficiency (Qa)
 76.6137     = Lidar ratio
0.625715     micron^2 = <b> = Average surface area per particle
 1.94026     microns^2 = Extinction cross section (C)
 1.94026     microns^2 = Scattering cross section (Cs)
0.444089E-15 microns^2 = Absorption cross section (Ca)
 |----------------------------------------------------|
 | COMMENTAIRES:                                      |
 |----------------------------------------------------|
 |   -Cross section / <b> should = efficiency         |
 |    is independant of the normalisation of dN/dx    |
 |   -The integral of the phase fct / 4 pi over all   |
 |    directions (solid angle) = 1.                   |
 |   -The volume coefficient (k) is equal to C * N    |
 |      = cross section * Number density              |
 |      typical units: [um^2]*[particles/cm^3] =      |
 |      [10^-3 km-1]                                  |
 |      N = M/(d*4/3*pi*r^3) where d is the density   |
 |      of particle, M is the mass per unit volume    |
 |      and 4/3*pi*r^3 is the average volume  of a    |
 |      particle.                                     |
 |      typical units:  M -> [ug/m^3], d -> [g/cm^3]  |
 |                      r -> [um]                     |
 |      Lidar ratio= 4 pi Qe / phase_fct(180)*Qs      |
 |----------------------------------------------------|
