 |--------|------------|
 | ANGLE  |  PHASE FCT |
 |--------|------------|
     0.00   71.337    
     1.00   70.152    
     2.00   66.781    
     3.00   61.713    
     4.00   55.588    
     5.00   49.030    
     6.00   42.543    
     7.00   36.474    
     8.00   31.023    
     9.00   26.273    
    10.00   22.228    
    11.00   18.840    
    12.00   16.036    
    13.00   13.734    
    14.00   11.852    
    15.00   10.315    
    16.00   9.0570    
    17.00   8.0232    
    18.00   7.1674    
    19.00   6.4524    
    20.00   5.8489    
    21.00   5.3337    
    22.00   4.8886    
    23.00   4.4996    
    24.00   4.1559    
    25.00   3.8493    
    26.00   3.5732    
    27.00   3.3229    
    28.00   3.0944    
    29.00   2.8848    
    30.00   2.6918    
    31.00   2.5134    
    32.00   2.3481    
    33.00   2.1948    
    34.00   2.0523    
    35.00   1.9198    
    36.00   1.7964    
    37.00   1.6815    
    38.00   1.5745    
    39.00   1.4747    
    40.00   1.3818    
    41.00   1.2951    
    42.00   1.2144    
    43.00   1.1391    
    44.00   1.0689    
    45.00   1.0035    
    46.00  0.94246    
    47.00  0.88556    
    48.00  0.83249    
    49.00  0.78299    
    50.00  0.73681    
    51.00  0.69372    
    52.00  0.65350    
    53.00  0.61595    
    54.00  0.58089    
    55.00  0.54814    
    56.00  0.51754    
    57.00  0.48895    
    58.00  0.46222    
    59.00  0.43722    
    60.00  0.41384    
    61.00  0.39196    
    62.00  0.37149    
    63.00  0.35232    
    64.00  0.33438    
    65.00  0.31757    
    66.00  0.30182    
    67.00  0.28706    
    68.00  0.27323    
    69.00  0.26026    
    70.00  0.24810    
    71.00  0.23670    
    72.00  0.22601    
    73.00  0.21598    
    74.00  0.20657    
    75.00  0.19774    
    76.00  0.18946    
    77.00  0.18169    
    78.00  0.17441    
    79.00  0.16757    
    80.00  0.16117    
    81.00  0.15516    
    82.00  0.14953    
    83.00  0.14425    
    84.00  0.13931    
    85.00  0.13468    
    86.00  0.13036    
    87.00  0.12631    
    88.00  0.12253    
    89.00  0.11900    
    90.00  0.11570    
    91.00  0.11263    
    92.00  0.10978    
    93.00  0.10713    
    94.00  0.10467    
    95.00  0.10240    
    96.00  0.10030    
    97.00  0.98368E-01
    98.00  0.96598E-01
    99.00  0.94984E-01
   100.00  0.93518E-01
   101.00  0.92198E-01
   102.00  0.91016E-01
   103.00  0.89971E-01
   104.00  0.89059E-01
   105.00  0.88278E-01
   106.00  0.87626E-01
   107.00  0.87101E-01
   108.00  0.86703E-01
   109.00  0.86432E-01
   110.00  0.86289E-01
   111.00  0.86274E-01
   112.00  0.86390E-01
   113.00  0.86639E-01
   114.00  0.87024E-01
   115.00  0.87548E-01
   116.00  0.88215E-01
   117.00  0.89030E-01
   118.00  0.89997E-01
   119.00  0.91123E-01
   120.00  0.92411E-01
   121.00  0.93869E-01
   122.00  0.95503E-01
   123.00  0.97318E-01
   124.00  0.99320E-01
   125.00  0.10152    
   126.00  0.10391    
   127.00  0.10651    
   128.00  0.10931    
   129.00  0.11232    
   130.00  0.11554    
   131.00  0.11897    
   132.00  0.12260    
   133.00  0.12643    
   134.00  0.13044    
   135.00  0.13463    
   136.00  0.13898    
   137.00  0.14346    
   138.00  0.14805    
   139.00  0.15272    
   140.00  0.15744    
   141.00  0.16216    
   142.00  0.16685    
   143.00  0.17147    
   144.00  0.17597    
   145.00  0.18032    
   146.00  0.18448    
   147.00  0.18844    
   148.00  0.19217    
   149.00  0.19568    
   150.00  0.19899    
   151.00  0.20215    
   152.00  0.20523    
   153.00  0.20833    
   154.00  0.21161    
   155.00  0.21522    
   156.00  0.21936    
   157.00  0.22424    
   158.00  0.23006    
   159.00  0.23700    
   160.00  0.24513    
   161.00  0.25443    
   162.00  0.26464    
   163.00  0.27524    
   164.00  0.28536    
   165.00  0.29377    
   166.00  0.29892    
   167.00  0.29915    
   168.00  0.29297    
   169.00  0.27957    
   170.00  0.25936    
   171.00  0.23443    
   172.00  0.20871    
   173.00  0.18756    
   174.00  0.17661    
   175.00  0.18009    
   176.00  0.19889    
   177.00  0.22929    
   178.00  0.26305    
   179.00  0.28952    
   180.00  0.29955    
 |--------|------------|
0.700000     micron = Wavelength
 2.78351     = Extinction efficiency (Q)
 2.78351     = Scattering efficiency (Qs)
 0.00000     = Absorption efficiency (Qa)
 41.9503     = Lidar ratio
 2.43682     micron^2 = <b> = Average surface area per particle
 6.78292     microns^2 = Extinction cross section (C)
 6.78292     microns^2 = Scattering cross section (Cs)
0.174083E-14 microns^2 = Absorption cross section (Ca)
 |----------------------------------------------------|
 | COMMENTAIRES:                                      |
 |----------------------------------------------------|
 |   -Cross section / <b> should = efficiency         |
 |    is independant of the normalisation of dN/dx    |
 |   -The integral of the phase fct / 4 pi over all   |
 |    directions (solid angle) = 1.                   |
 |   -The volume coefficient (k) is equal to C * N    |
 |      = cross section * Number density              |
 |      typical units: [um^2]*[particles/cm^3] =      |
 |      [10^-3 km-1]                                  |
 |      N = M/(d*4/3*pi*r^3) where d is the density   |
 |      of particle, M is the mass per unit volume    |
 |      and 4/3*pi*r^3 is the average volume  of a    |
 |      particle.                                     |
 |      typical units:  M -> [ug/m^3], d -> [g/cm^3]  |
 |                      r -> [um]                     |
 |      Lidar ratio= 4 pi Qe / phase_fct(180)*Qs      |
 |----------------------------------------------------|
