 |--------|------------|
 | ANGLE  |  PHASE FCT |
 |--------|------------|
     0.00   39.758    
     1.00   39.471    
     2.00   38.629    
     3.00   37.292    
     4.00   35.547    
     5.00   33.497    
     6.00   31.244    
     7.00   28.887    
     8.00   26.507    
     9.00   24.172    
    10.00   21.931    
    11.00   19.818    
    12.00   17.855    
    13.00   16.052    
    14.00   14.412    
    15.00   12.931    
    16.00   11.601    
    17.00   10.413    
    18.00   9.3544    
    19.00   8.4143    
    20.00   7.5804    
    21.00   6.8410    
    22.00   6.1856    
    23.00   5.6044    
    24.00   5.0884    
    25.00   4.6298    
    26.00   4.2214    
    27.00   3.8571    
    28.00   3.5315    
    29.00   3.2397    
    30.00   2.9776    
    31.00   2.7417    
    32.00   2.5288    
    33.00   2.3363    
    34.00   2.1617    
    35.00   2.0031    
    36.00   1.8587    
    37.00   1.7269    
    38.00   1.6065    
    39.00   1.4962    
    40.00   1.3950    
    41.00   1.3020    
    42.00   1.2164    
    43.00   1.1375    
    44.00   1.0648    
    45.00  0.99755    
    46.00  0.93538    
    47.00  0.87781    
    48.00  0.82446    
    49.00  0.77497    
    50.00  0.72903    
    51.00  0.68634    
    52.00  0.64664    
    53.00  0.60970    
    54.00  0.57530    
    55.00  0.54325    
    56.00  0.51337    
    57.00  0.48550    
    58.00  0.45948    
    59.00  0.43518    
    60.00  0.41248    
    61.00  0.39126    
    62.00  0.37141    
    63.00  0.35283    
    64.00  0.33545    
    65.00  0.31916    
    66.00  0.30391    
    67.00  0.28961    
    68.00  0.27621    
    69.00  0.26364    
    70.00  0.25184    
    71.00  0.24077    
    72.00  0.23038    
    73.00  0.22062    
    74.00  0.21145    
    75.00  0.20284    
    76.00  0.19474    
    77.00  0.18713    
    78.00  0.17997    
    79.00  0.17324    
    80.00  0.16691    
    81.00  0.16096    
    82.00  0.15535    
    83.00  0.15008    
    84.00  0.14513    
    85.00  0.14046    
    86.00  0.13608    
    87.00  0.13195    
    88.00  0.12808    
    89.00  0.12443    
    90.00  0.12101    
    91.00  0.11779    
    92.00  0.11477    
    93.00  0.11194    
    94.00  0.10929    
    95.00  0.10681    
    96.00  0.10450    
    97.00  0.10233    
    98.00  0.10032    
    99.00  0.98450E-01
   100.00  0.96716E-01
   101.00  0.95115E-01
   102.00  0.93642E-01
   103.00  0.92293E-01
   104.00  0.91064E-01
   105.00  0.89953E-01
   106.00  0.88955E-01
   107.00  0.88071E-01
   108.00  0.87297E-01
   109.00  0.86631E-01
   110.00  0.86074E-01
   111.00  0.85623E-01
   112.00  0.85279E-01
   113.00  0.85042E-01
   114.00  0.84911E-01
   115.00  0.84887E-01
   116.00  0.84971E-01
   117.00  0.85165E-01
   118.00  0.85469E-01
   119.00  0.85885E-01
   120.00  0.86416E-01
   121.00  0.87062E-01
   122.00  0.87828E-01
   123.00  0.88716E-01
   124.00  0.89728E-01
   125.00  0.90868E-01
   126.00  0.92138E-01
   127.00  0.93544E-01
   128.00  0.95087E-01
   129.00  0.96773E-01
   130.00  0.98603E-01
   131.00  0.10058    
   132.00  0.10271    
   133.00  0.10500    
   134.00  0.10745    
   135.00  0.11006    
   136.00  0.11284    
   137.00  0.11579    
   138.00  0.11890    
   139.00  0.12220    
   140.00  0.12566    
   141.00  0.12931    
   142.00  0.13314    
   143.00  0.13715    
   144.00  0.14134    
   145.00  0.14571    
   146.00  0.15027    
   147.00  0.15501    
   148.00  0.15994    
   149.00  0.16504    
   150.00  0.17030    
   151.00  0.17572    
   152.00  0.18127    
   153.00  0.18692    
   154.00  0.19261    
   155.00  0.19828    
   156.00  0.20383    
   157.00  0.20912    
   158.00  0.21397    
   159.00  0.21817    
   160.00  0.22144    
   161.00  0.22346    
   162.00  0.22390    
   163.00  0.22239    
   164.00  0.21862    
   165.00  0.21238    
   166.00  0.20359    
   167.00  0.19244    
   168.00  0.17944    
   169.00  0.16541    
   170.00  0.15153    
   171.00  0.13922    
   172.00  0.12994    
   173.00  0.12494    
   174.00  0.12495    
   175.00  0.12990    
   176.00  0.13877    
   177.00  0.14965    
   178.00  0.16008    
   179.00  0.16758    
   180.00  0.17031    
 |--------|------------|
0.436000     micron = Wavelength
 3.11901     = Extinction efficiency (Q)
 3.11901     = Scattering efficiency (Qs)
 0.00000     = Absorption efficiency (Qa)
 73.7852     = Lidar ratio
0.437499     micron^2 = <b> = Average surface area per particle
 1.36456     microns^2 = Extinction cross section (C)
 1.36456     microns^2 = Scattering cross section (Cs)
0.337678E-15 microns^2 = Absorption cross section (Ca)
 |----------------------------------------------------|
 | COMMENTAIRES:                                      |
 |----------------------------------------------------|
 |   -Cross section / <b> should = efficiency         |
 |    is independant of the normalisation of dN/dx    |
 |   -The integral of the phase fct / 4 pi over all   |
 |    directions (solid angle) = 1.                   |
 |   -The volume coefficient (k) is equal to C * N    |
 |      = cross section * Number density              |
 |      typical units: [um^2]*[particles/cm^3] =      |
 |      [10^-3 km-1]                                  |
 |      N = M/(d*4/3*pi*r^3) where d is the density   |
 |      of particle, M is the mass per unit volume    |
 |      and 4/3*pi*r^3 is the average volume  of a    |
 |      particle.                                     |
 |      typical units:  M -> [ug/m^3], d -> [g/cm^3]  |
 |                      r -> [um]                     |
 |      Lidar ratio= 4 pi Qe / phase_fct(180)*Qs      |
 |----------------------------------------------------|
