 |--------|------------|
 | ANGLE  |  PHASE FCT |
 |--------|------------|
     0.00   16.591    
     1.00   16.559    
     2.00   16.462    
     3.00   16.303    
     4.00   16.084    
     5.00   15.808    
     6.00   15.480    
     7.00   15.106    
     8.00   14.689    
     9.00   14.237    
    10.00   13.754    
    11.00   13.248    
    12.00   12.722    
    13.00   12.184    
    14.00   11.638    
    15.00   11.089    
    16.00   10.542    
    17.00   9.9988    
    18.00   9.4645    
    19.00   8.9417    
    20.00   8.4326    
    21.00   7.9393    
    22.00   7.4635    
    23.00   7.0063    
    24.00   6.5687    
    25.00   6.1512    
    26.00   5.7540    
    27.00   5.3774    
    28.00   5.0210    
    29.00   4.6848    
    30.00   4.3681    
    31.00   4.0706    
    32.00   3.7915    
    33.00   3.5301    
    34.00   3.2856    
    35.00   3.0574    
    36.00   2.8445    
    37.00   2.6462    
    38.00   2.4616    
    39.00   2.2901    
    40.00   2.1306    
    41.00   1.9826    
    42.00   1.8453    
    43.00   1.7179    
    44.00   1.5999    
    45.00   1.4905    
    46.00   1.3892    
    47.00   1.2953    
    48.00   1.2084    
    49.00   1.1280    
    50.00   1.0535    
    51.00  0.98456    
    52.00  0.92071    
    53.00  0.86160    
    54.00  0.80685    
    55.00  0.75613    
    56.00  0.70914    
    57.00  0.66559    
    58.00  0.62521    
    59.00  0.58777    
    60.00  0.55304    
    61.00  0.52080    
    62.00  0.49087    
    63.00  0.46307    
    64.00  0.43723    
    65.00  0.41321    
    66.00  0.39086    
    67.00  0.37006    
    68.00  0.35069    
    69.00  0.33265    
    70.00  0.31583    
    71.00  0.30014    
    72.00  0.28550    
    73.00  0.27183    
    74.00  0.25906    
    75.00  0.24712    
    76.00  0.23596    
    77.00  0.22551    
    78.00  0.21573    
    79.00  0.20657    
    80.00  0.19799    
    81.00  0.18994    
    82.00  0.18239    
    83.00  0.17531    
    84.00  0.16866    
    85.00  0.16242    
    86.00  0.15656    
    87.00  0.15105    
    88.00  0.14587    
    89.00  0.14100    
    90.00  0.13642    
    91.00  0.13211    
    92.00  0.12806    
    93.00  0.12426    
    94.00  0.12067    
    95.00  0.11731    
    96.00  0.11414    
    97.00  0.11116    
    98.00  0.10837    
    99.00  0.10574    
   100.00  0.10328    
   101.00  0.10096    
   102.00  0.98798E-01
   103.00  0.96770E-01
   104.00  0.94874E-01
   105.00  0.93103E-01
   106.00  0.91453E-01
   107.00  0.89918E-01
   108.00  0.88494E-01
   109.00  0.87174E-01
   110.00  0.85957E-01
   111.00  0.84838E-01
   112.00  0.83813E-01
   113.00  0.82880E-01
   114.00  0.82035E-01
   115.00  0.81276E-01
   116.00  0.80600E-01
   117.00  0.80006E-01
   118.00  0.79490E-01
   119.00  0.79051E-01
   120.00  0.78688E-01
   121.00  0.78398E-01
   122.00  0.78181E-01
   123.00  0.78034E-01
   124.00  0.77957E-01
   125.00  0.77948E-01
   126.00  0.78006E-01
   127.00  0.78130E-01
   128.00  0.78319E-01
   129.00  0.78571E-01
   130.00  0.78886E-01
   131.00  0.79263E-01
   132.00  0.79699E-01
   133.00  0.80195E-01
   134.00  0.80747E-01
   135.00  0.81355E-01
   136.00  0.82017E-01
   137.00  0.82731E-01
   138.00  0.83495E-01
   139.00  0.84306E-01
   140.00  0.85162E-01
   141.00  0.86059E-01
   142.00  0.86994E-01
   143.00  0.87965E-01
   144.00  0.88966E-01
   145.00  0.89993E-01
   146.00  0.91043E-01
   147.00  0.92111E-01
   148.00  0.93192E-01
   149.00  0.94280E-01
   150.00  0.95371E-01
   151.00  0.96460E-01
   152.00  0.97544E-01
   153.00  0.98617E-01
   154.00  0.99677E-01
   155.00  0.10072    
   156.00  0.10175    
   157.00  0.10277    
   158.00  0.10377    
   159.00  0.10477    
   160.00  0.10577    
   161.00  0.10678    
   162.00  0.10782    
   163.00  0.10890    
   164.00  0.11003    
   165.00  0.11123    
   166.00  0.11253    
   167.00  0.11392    
   168.00  0.11542    
   169.00  0.11703    
   170.00  0.11875    
   171.00  0.12055    
   172.00  0.12240    
   173.00  0.12426    
   174.00  0.12607    
   175.00  0.12777    
   176.00  0.12929    
   177.00  0.13056    
   178.00  0.13152    
   179.00  0.13212    
   180.00  0.13232    
 |--------|------------|
0.620000     micron = Wavelength
 1.96612     = Extinction efficiency (Q)
 1.96612     = Scattering efficiency (Qs)
 0.00000     = Absorption efficiency (Qa)
 94.9687     = Lidar ratio
0.180223     micron^2 = <b> = Average surface area per particle
0.354339     microns^2 = Extinction cross section (C)
0.354339     microns^2 = Scattering cross section (Cs)
 0.00000     microns^2 = Absorption cross section (Ca)
 |----------------------------------------------------|
 | COMMENTAIRES:                                      |
 |----------------------------------------------------|
 |   -Cross section / <b> should = efficiency         |
 |    is independant of the normalisation of dN/dx    |
 |   -The integral of the phase fct / 4 pi over all   |
 |    directions (solid angle) = 1.                   |
 |   -The volume coefficient (k) is equal to C * N    |
 |      = cross section * Number density              |
 |      typical units: [um^2]*[particles/cm^3] =      |
 |      [10^-3 km-1]                                  |
 |      N = M/(d*4/3*pi*r^3) where d is the density   |
 |      of particle, M is the mass per unit volume    |
 |      and 4/3*pi*r^3 is the average volume  of a    |
 |      particle.                                     |
 |      typical units:  M -> [ug/m^3], d -> [g/cm^3]  |
 |                      r -> [um]                     |
 |      Lidar ratio= 4 pi Qe / phase_fct(180)*Qs      |
 |----------------------------------------------------|
