 |--------|------------|
 | ANGLE  |  PHASE FCT |
 |--------|------------|
     0.00   15.241    
     1.00   15.209    
     2.00   15.114    
     3.00   14.958    
     4.00   14.745    
     5.00   14.477    
     6.00   14.160    
     7.00   13.799    
     8.00   13.400    
     9.00   12.969    
    10.00   12.512    
    11.00   12.034    
    12.00   11.543    
    13.00   11.042    
    14.00   10.536    
    15.00   10.031    
    16.00   9.5296    
    17.00   9.0355    
    18.00   8.5515    
    19.00   8.0801    
    20.00   7.6232    
    21.00   7.1825    
    22.00   6.7589    
    23.00   6.3534    
    24.00   5.9665    
    25.00   5.5985    
    26.00   5.2494    
    27.00   4.9191    
    28.00   4.6073    
    29.00   4.3135    
    30.00   4.0372    
    31.00   3.7778    
    32.00   3.5347    
    33.00   3.3070    
    34.00   3.0941    
    35.00   2.8952    
    36.00   2.7096    
    37.00   2.5364    
    38.00   2.3751    
    39.00   2.2247    
    40.00   2.0848    
    41.00   1.9545    
    42.00   1.8333    
    43.00   1.7205    
    44.00   1.6156    
    45.00   1.5180    
    46.00   1.4272    
    47.00   1.3427    
    48.00   1.2641    
    49.00   1.1909    
    50.00   1.1228    
    51.00   1.0593    
    52.00   1.0002    
    53.00  0.94514    
    54.00  0.89379    
    55.00  0.84588    
    56.00  0.80117    
    57.00  0.75941    
    58.00  0.72041    
    59.00  0.68395    
    60.00  0.64985    
    61.00  0.61794    
    62.00  0.58807    
    63.00  0.56008    
    64.00  0.53384    
    65.00  0.50923    
    66.00  0.48614    
    67.00  0.46445    
    68.00  0.44407    
    69.00  0.42492    
    70.00  0.40690    
    71.00  0.38995    
    72.00  0.37398    
    73.00  0.35894    
    74.00  0.34477    
    75.00  0.33141    
    76.00  0.31880    
    77.00  0.30690    
    78.00  0.29567    
    79.00  0.28507    
    80.00  0.27505    
    81.00  0.26558    
    82.00  0.25663    
    83.00  0.24817    
    84.00  0.24017    
    85.00  0.23261    
    86.00  0.22546    
    87.00  0.21869    
    88.00  0.21229    
    89.00  0.20625    
    90.00  0.20053    
    91.00  0.19512    
    92.00  0.19002    
    93.00  0.18519    
    94.00  0.18064    
    95.00  0.17635    
    96.00  0.17230    
    97.00  0.16849    
    98.00  0.16490    
    99.00  0.16154    
   100.00  0.15838    
   101.00  0.15542    
   102.00  0.15266    
   103.00  0.15009    
   104.00  0.14770    
   105.00  0.14548    
   106.00  0.14344    
   107.00  0.14157    
   108.00  0.13986    
   109.00  0.13831    
   110.00  0.13692    
   111.00  0.13568    
   112.00  0.13460    
   113.00  0.13367    
   114.00  0.13289    
   115.00  0.13226    
   116.00  0.13177    
   117.00  0.13143    
   118.00  0.13124    
   119.00  0.13120    
   120.00  0.13130    
   121.00  0.13155    
   122.00  0.13195    
   123.00  0.13250    
   124.00  0.13319    
   125.00  0.13403    
   126.00  0.13502    
   127.00  0.13616    
   128.00  0.13745    
   129.00  0.13888    
   130.00  0.14045    
   131.00  0.14217    
   132.00  0.14403    
   133.00  0.14602    
   134.00  0.14814    
   135.00  0.15039    
   136.00  0.15275    
   137.00  0.15521    
   138.00  0.15776    
   139.00  0.16039    
   140.00  0.16308    
   141.00  0.16581    
   142.00  0.16857    
   143.00  0.17131    
   144.00  0.17403    
   145.00  0.17669    
   146.00  0.17926    
   147.00  0.18171    
   148.00  0.18402    
   149.00  0.18614    
   150.00  0.18806    
   151.00  0.18974    
   152.00  0.19118    
   153.00  0.19236    
   154.00  0.19329    
   155.00  0.19398    
   156.00  0.19446    
   157.00  0.19478    
   158.00  0.19501    
   159.00  0.19524    
   160.00  0.19557    
   161.00  0.19614    
   162.00  0.19709    
   163.00  0.19857    
   164.00  0.20073    
   165.00  0.20371    
   166.00  0.20764    
   167.00  0.21261    
   168.00  0.21865    
   169.00  0.22575    
   170.00  0.23383    
   171.00  0.24273    
   172.00  0.25221    
   173.00  0.26196    
   174.00  0.27161    
   175.00  0.28076    
   176.00  0.28899    
   177.00  0.29589    
   178.00  0.30111    
   179.00  0.30436    
   180.00  0.30546    
 |--------|------------|
0.430000     micron = Wavelength
 3.07501     = Extinction efficiency (Q)
 3.07501     = Scattering efficiency (Qs)
 0.00000     = Absorption efficiency (Qa)
 41.1387     = Lidar ratio
0.110755     micron^2 = <b> = Average surface area per particle
0.340574     microns^2 = Extinction cross section (C)
0.340574     microns^2 = Scattering cross section (Cs)
 0.00000     microns^2 = Absorption cross section (Ca)
 |----------------------------------------------------|
 | COMMENTAIRES:                                      |
 |----------------------------------------------------|
 |   -Cross section / <b> should = efficiency         |
 |    is independant of the normalisation of dN/dx    |
 |   -The integral of the phase fct / 4 pi over all   |
 |    directions (solid angle) = 1.                   |
 |   -The volume coefficient (k) is equal to C * N    |
 |      = cross section * Number density              |
 |      typical units: [um^2]*[particles/cm^3] =      |
 |      [10^-3 km-1]                                  |
 |      N = M/(d*4/3*pi*r^3) where d is the density   |
 |      of particle, M is the mass per unit volume    |
 |      and 4/3*pi*r^3 is the average volume  of a    |
 |      particle.                                     |
 |      typical units:  M -> [ug/m^3], d -> [g/cm^3]  |
 |                      r -> [um]                     |
 |      Lidar ratio= 4 pi Qe / phase_fct(180)*Qs      |
 |----------------------------------------------------|
