 |--------|------------|
 | ANGLE  |  PHASE FCT |
 |--------|------------|
     0.00   18.264    
     1.00   18.224    
     2.00   18.104    
     3.00   17.908    
     4.00   17.637    
     5.00   17.299    
     6.00   16.898    
     7.00   16.441    
     8.00   15.936    
     9.00   15.390    
    10.00   14.811    
    11.00   14.207    
    12.00   13.584    
    13.00   12.950    
    14.00   12.312    
    15.00   11.674    
    16.00   11.042    
    17.00   10.420    
    18.00   9.8128    
    19.00   9.2225    
    20.00   8.6521    
    21.00   8.1034    
    22.00   7.5781    
    23.00   7.0770    
    24.00   6.6008    
    25.00   6.1498    
    26.00   5.7239    
    27.00   5.3229    
    28.00   4.9463    
    29.00   4.5933    
    30.00   4.2631    
    31.00   3.9550    
    32.00   3.6679    
    33.00   3.4007    
    34.00   3.1525    
    35.00   2.9221    
    36.00   2.7086    
    37.00   2.5109    
    38.00   2.3280    
    39.00   2.1588    
    40.00   2.0025    
    41.00   1.8582    
    42.00   1.7249    
    43.00   1.6020    
    44.00   1.4886    
    45.00   1.3839    
    46.00   1.2874    
    47.00   1.1984    
    48.00   1.1164    
    49.00   1.0407    
    50.00  0.97082    
    51.00  0.90638    
    52.00  0.84691    
    53.00  0.79200    
    54.00  0.74129    
    55.00  0.69444    
    56.00  0.65114    
    57.00  0.61109    
    58.00  0.57405    
    59.00  0.53976    
    60.00  0.50800    
    61.00  0.47857    
    62.00  0.45128    
    63.00  0.42596    
    64.00  0.40246    
    65.00  0.38062    
    66.00  0.36033    
    67.00  0.34145    
    68.00  0.32388    
    69.00  0.30752    
    70.00  0.29227    
    71.00  0.27804    
    72.00  0.26477    
    73.00  0.25238    
    74.00  0.24080    
    75.00  0.22998    
    76.00  0.21985    
    77.00  0.21038    
    78.00  0.20150    
    79.00  0.19318    
    80.00  0.18539    
    81.00  0.17807    
    82.00  0.17121    
    83.00  0.16477    
    84.00  0.15872    
    85.00  0.15303    
    86.00  0.14769    
    87.00  0.14266    
    88.00  0.13794    
    89.00  0.13350    
    90.00  0.12932    
    91.00  0.12539    
    92.00  0.12169    
    93.00  0.11821    
    94.00  0.11494    
    95.00  0.11187    
    96.00  0.10897    
    97.00  0.10626    
    98.00  0.10371    
    99.00  0.10131    
   100.00  0.99063E-01
   101.00  0.96957E-01
   102.00  0.94987E-01
   103.00  0.93145E-01
   104.00  0.91425E-01
   105.00  0.89824E-01
   106.00  0.88334E-01
   107.00  0.86953E-01
   108.00  0.85676E-01
   109.00  0.84499E-01
   110.00  0.83419E-01
   111.00  0.82432E-01
   112.00  0.81535E-01
   113.00  0.80726E-01
   114.00  0.80003E-01
   115.00  0.79363E-01
   116.00  0.78804E-01
   117.00  0.78324E-01
   118.00  0.77922E-01
   119.00  0.77596E-01
   120.00  0.77345E-01
   121.00  0.77168E-01
   122.00  0.77063E-01
   123.00  0.77029E-01
   124.00  0.77066E-01
   125.00  0.77173E-01
   126.00  0.77349E-01
   127.00  0.77593E-01
   128.00  0.77904E-01
   129.00  0.78282E-01
   130.00  0.78726E-01
   131.00  0.79234E-01
   132.00  0.79805E-01
   133.00  0.80439E-01
   134.00  0.81135E-01
   135.00  0.81889E-01
   136.00  0.82701E-01
   137.00  0.83569E-01
   138.00  0.84489E-01
   139.00  0.85459E-01
   140.00  0.86476E-01
   141.00  0.87536E-01
   142.00  0.88634E-01
   143.00  0.89766E-01
   144.00  0.90926E-01
   145.00  0.92108E-01
   146.00  0.93305E-01
   147.00  0.94510E-01
   148.00  0.95716E-01
   149.00  0.96914E-01
   150.00  0.98096E-01
   151.00  0.99253E-01
   152.00  0.10038    
   153.00  0.10146    
   154.00  0.10249    
   155.00  0.10347    
   156.00  0.10439    
   157.00  0.10524    
   158.00  0.10604    
   159.00  0.10678    
   160.00  0.10748    
   161.00  0.10814    
   162.00  0.10879    
   163.00  0.10944    
   164.00  0.11014    
   165.00  0.11090    
   166.00  0.11176    
   167.00  0.11276    
   168.00  0.11391    
   169.00  0.11524    
   170.00  0.11676    
   171.00  0.11846    
   172.00  0.12030    
   173.00  0.12224    
   174.00  0.12421    
   175.00  0.12612    
   176.00  0.12788    
   177.00  0.12937    
   178.00  0.13052    
   179.00  0.13125    
   180.00  0.13149    
 |--------|------------|
0.570000     micron = Wavelength
 2.19803     = Extinction efficiency (Q)
 2.19803     = Scattering efficiency (Qs)
 0.00000     = Absorption efficiency (Qa)
 95.5662     = Lidar ratio
0.180223     micron^2 = <b> = Average surface area per particle
0.396136     microns^2 = Extinction cross section (C)
0.396136     microns^2 = Scattering cross section (Cs)
 0.00000     microns^2 = Absorption cross section (Ca)
 |----------------------------------------------------|
 | COMMENTAIRES:                                      |
 |----------------------------------------------------|
 |   -Cross section / <b> should = efficiency         |
 |    is independant of the normalisation of dN/dx    |
 |   -The integral of the phase fct / 4 pi over all   |
 |    directions (solid angle) = 1.                   |
 |   -The volume coefficient (k) is equal to C * N    |
 |      = cross section * Number density              |
 |      typical units: [um^2]*[particles/cm^3] =      |
 |      [10^-3 km-1]                                  |
 |      N = M/(d*4/3*pi*r^3) where d is the density   |
 |      of particle, M is the mass per unit volume    |
 |      and 4/3*pi*r^3 is the average volume  of a    |
 |      particle.                                     |
 |      typical units:  M -> [ug/m^3], d -> [g/cm^3]  |
 |                      r -> [um]                     |
 |      Lidar ratio= 4 pi Qe / phase_fct(180)*Qs      |
 |----------------------------------------------------|
