 |--------|------------|
 | ANGLE  |  PHASE FCT |
 |--------|------------|
     0.00   14.306    
     1.00   14.282    
     2.00   14.211    
     3.00   14.095    
     4.00   13.934    
     5.00   13.731    
     6.00   13.489    
     7.00   13.210    
     8.00   12.899    
     9.00   12.559    
    10.00   12.194    
    11.00   11.808    
    12.00   11.404    
    13.00   10.987    
    14.00   10.560    
    15.00   10.127    
    16.00   9.6913    
    17.00   9.2555    
    18.00   8.8223    
    19.00   8.3942    
    20.00   7.9734    
    21.00   7.5617    
    22.00   7.1605    
    23.00   6.7713    
    24.00   6.3949    
    25.00   6.0323    
    26.00   5.6840    
    27.00   5.3504    
    28.00   5.0317    
    29.00   4.7280    
    30.00   4.4392    
    31.00   4.1652    
    32.00   3.9058    
    33.00   3.6606    
    34.00   3.4292    
    35.00   3.2111    
    36.00   3.0059    
    37.00   2.8131    
    38.00   2.6321    
    39.00   2.4624    
    40.00   2.3034    
    41.00   2.1546    
    42.00   2.0154    
    43.00   1.8854    
    44.00   1.7639    
    45.00   1.6506    
    46.00   1.5448    
    47.00   1.4462    
    48.00   1.3542    
    49.00   1.2686    
    50.00   1.1888    
    51.00   1.1144    
    52.00   1.0452    
    53.00  0.98071    
    54.00  0.92068    
    55.00  0.86478    
    56.00  0.81274    
    57.00  0.76427    
    58.00  0.71914    
    59.00  0.67711    
    60.00  0.63796    
    61.00  0.60148    
    62.00  0.56749    
    63.00  0.53580    
    64.00  0.50626    
    65.00  0.47871    
    66.00  0.45301    
    67.00  0.42902    
    68.00  0.40663    
    69.00  0.38572    
    70.00  0.36619    
    71.00  0.34794    
    72.00  0.33087    
    73.00  0.31491    
    74.00  0.29998    
    75.00  0.28600    
    76.00  0.27292    
    77.00  0.26066    
    78.00  0.24917    
    79.00  0.23840    
    80.00  0.22830    
    81.00  0.21882    
    82.00  0.20992    
    83.00  0.20157    
    84.00  0.19373    
    85.00  0.18636    
    86.00  0.17944    
    87.00  0.17293    
    88.00  0.16681    
    89.00  0.16105    
    90.00  0.15563    
    91.00  0.15054    
    92.00  0.14575    
    93.00  0.14124    
    94.00  0.13700    
    95.00  0.13301    
    96.00  0.12925    
    97.00  0.12572    
    98.00  0.12240    
    99.00  0.11928    
   100.00  0.11635    
   101.00  0.11360    
   102.00  0.11101    
   103.00  0.10859    
   104.00  0.10632    
   105.00  0.10420    
   106.00  0.10221    
   107.00  0.10036    
   108.00  0.98636E-01
   109.00  0.97032E-01
   110.00  0.95546E-01
   111.00  0.94171E-01
   112.00  0.92904E-01
   113.00  0.91740E-01
   114.00  0.90676E-01
   115.00  0.89709E-01
   116.00  0.88835E-01
   117.00  0.88051E-01
   118.00  0.87355E-01
   119.00  0.86745E-01
   120.00  0.86217E-01
   121.00  0.85770E-01
   122.00  0.85401E-01
   123.00  0.85109E-01
   124.00  0.84892E-01
   125.00  0.84749E-01
   126.00  0.84677E-01
   127.00  0.84675E-01
   128.00  0.84741E-01
   129.00  0.84875E-01
   130.00  0.85074E-01
   131.00  0.85337E-01
   132.00  0.85662E-01
   133.00  0.86049E-01
   134.00  0.86495E-01
   135.00  0.86998E-01
   136.00  0.87557E-01
   137.00  0.88170E-01
   138.00  0.88835E-01
   139.00  0.89549E-01
   140.00  0.90311E-01
   141.00  0.91119E-01
   142.00  0.91968E-01
   143.00  0.92858E-01
   144.00  0.93785E-01
   145.00  0.94746E-01
   146.00  0.95739E-01
   147.00  0.96760E-01
   148.00  0.97807E-01
   149.00  0.98877E-01
   150.00  0.99967E-01
   151.00  0.10108    
   152.00  0.10220    
   153.00  0.10335    
   154.00  0.10450    
   155.00  0.10568    
   156.00  0.10687    
   157.00  0.10808    
   158.00  0.10932    
   159.00  0.11059    
   160.00  0.11189    
   161.00  0.11323    
   162.00  0.11463    
   163.00  0.11608    
   164.00  0.11760    
   165.00  0.11918    
   166.00  0.12084    
   167.00  0.12257    
   168.00  0.12438    
   169.00  0.12624    
   170.00  0.12814    
   171.00  0.13005    
   172.00  0.13195    
   173.00  0.13379    
   174.00  0.13554    
   175.00  0.13713    
   176.00  0.13851    
   177.00  0.13965    
   178.00  0.14050    
   179.00  0.14102    
   180.00  0.14120    
 |--------|------------|
0.580000     micron = Wavelength
 1.76761     = Extinction efficiency (Q)
 1.76761     = Scattering efficiency (Qs)
 0.00000     = Absorption efficiency (Qa)
 88.9972     = Lidar ratio
0.126656     micron^2 = <b> = Average surface area per particle
0.223878     microns^2 = Extinction cross section (C)
0.223878     microns^2 = Scattering cross section (Cs)
0.746958E-16 microns^2 = Absorption cross section (Ca)
 |----------------------------------------------------|
 | COMMENTAIRES:                                      |
 |----------------------------------------------------|
 |   -Cross section / <b> should = efficiency         |
 |    is independant of the normalisation of dN/dx    |
 |   -The integral of the phase fct / 4 pi over all   |
 |    directions (solid angle) = 1.                   |
 |   -The volume coefficient (k) is equal to C * N    |
 |      = cross section * Number density              |
 |      typical units: [um^2]*[particles/cm^3] =      |
 |      [10^-3 km-1]                                  |
 |      N = M/(d*4/3*pi*r^3) where d is the density   |
 |      of particle, M is the mass per unit volume    |
 |      and 4/3*pi*r^3 is the average volume  of a    |
 |      particle.                                     |
 |      typical units:  M -> [ug/m^3], d -> [g/cm^3]  |
 |                      r -> [um]                     |
 |      Lidar ratio= 4 pi Qe / phase_fct(180)*Qs      |
 |----------------------------------------------------|
