 |--------|------------|
 | ANGLE  |  PHASE FCT |
 |--------|------------|
     0.00   31.276    
     1.00   31.130    
     2.00   30.699    
     3.00   30.002    
     4.00   29.068    
     5.00   27.934    
     6.00   26.642    
     7.00   25.233    
     8.00   23.747    
     9.00   22.222    
    10.00   20.688    
    11.00   19.174    
    12.00   17.699    
    13.00   16.283    
    14.00   14.935    
    15.00   13.664    
    16.00   12.476    
    17.00   11.372    
    18.00   10.352    
    19.00   9.4137    
    20.00   8.5546    
    21.00   7.7707    
    22.00   7.0575    
    23.00   6.4101    
    24.00   5.8238    
    25.00   5.2935    
    26.00   4.8144    
    27.00   4.3821    
    28.00   3.9922    
    29.00   3.6407    
    30.00   3.3238    
    31.00   3.0380    
    32.00   2.7803    
    33.00   2.5478    
    34.00   2.3378    
    35.00   2.1480    
    36.00   1.9764    
    37.00   1.8210    
    38.00   1.6802    
    39.00   1.5524    
    40.00   1.4363    
    41.00   1.3307    
    42.00   1.2345    
    43.00   1.1467    
    44.00   1.0666    
    45.00  0.99335    
    46.00  0.92625    
    47.00  0.86473    
    48.00  0.80825    
    49.00  0.75634    
    50.00  0.70856    
    51.00  0.66452    
    52.00  0.62390    
    53.00  0.58638    
    54.00  0.55168    
    55.00  0.51956    
    56.00  0.48980    
    57.00  0.46220    
    58.00  0.43657    
    59.00  0.41275    
    60.00  0.39059    
    61.00  0.36997    
    62.00  0.35075    
    63.00  0.33284    
    64.00  0.31612    
    65.00  0.30051    
    66.00  0.28592    
    67.00  0.27228    
    68.00  0.25952    
    69.00  0.24757    
    70.00  0.23638    
    71.00  0.22590    
    72.00  0.21607    
    73.00  0.20684    
    74.00  0.19819    
    75.00  0.19006    
    76.00  0.18242    
    77.00  0.17525    
    78.00  0.16851    
    79.00  0.16217    
    80.00  0.15621    
    81.00  0.15060    
    82.00  0.14533    
    83.00  0.14036    
    84.00  0.13569    
    85.00  0.13130    
    86.00  0.12716    
    87.00  0.12327    
    88.00  0.11960    
    89.00  0.11616    
    90.00  0.11292    
    91.00  0.10987    
    92.00  0.10701    
    93.00  0.10432    
    94.00  0.10180    
    95.00  0.99433E-01
    96.00  0.97218E-01
    97.00  0.95147E-01
    98.00  0.93212E-01
    99.00  0.91407E-01
   100.00  0.89728E-01
   101.00  0.88168E-01
   102.00  0.86725E-01
   103.00  0.85393E-01
   104.00  0.84169E-01
   105.00  0.83050E-01
   106.00  0.82032E-01
   107.00  0.81113E-01
   108.00  0.80289E-01
   109.00  0.79560E-01
   110.00  0.78924E-01
   111.00  0.78378E-01
   112.00  0.77922E-01
   113.00  0.77554E-01
   114.00  0.77275E-01
   115.00  0.77083E-01
   116.00  0.76977E-01
   117.00  0.76959E-01
   118.00  0.77028E-01
   119.00  0.77185E-01
   120.00  0.77430E-01
   121.00  0.77764E-01
   122.00  0.78189E-01
   123.00  0.78704E-01
   124.00  0.79312E-01
   125.00  0.80015E-01
   126.00  0.80814E-01
   127.00  0.81710E-01
   128.00  0.82707E-01
   129.00  0.83805E-01
   130.00  0.85007E-01
   131.00  0.86316E-01
   132.00  0.87734E-01
   133.00  0.89263E-01
   134.00  0.90905E-01
   135.00  0.92663E-01
   136.00  0.94538E-01
   137.00  0.96533E-01
   138.00  0.98649E-01
   139.00  0.10089    
   140.00  0.10325    
   141.00  0.10573    
   142.00  0.10834    
   143.00  0.11106    
   144.00  0.11390    
   145.00  0.11685    
   146.00  0.11991    
   147.00  0.12305    
   148.00  0.12628    
   149.00  0.12955    
   150.00  0.13287    
   151.00  0.13618    
   152.00  0.13946    
   153.00  0.14265    
   154.00  0.14569    
   155.00  0.14852    
   156.00  0.15106    
   157.00  0.15320    
   158.00  0.15484    
   159.00  0.15588    
   160.00  0.15620    
   161.00  0.15568    
   162.00  0.15423    
   163.00  0.15180    
   164.00  0.14837    
   165.00  0.14399    
   166.00  0.13880    
   167.00  0.13305    
   168.00  0.12708    
   169.00  0.12130    
   170.00  0.11623    
   171.00  0.11234    
   172.00  0.11007    
   173.00  0.10968    
   174.00  0.11121    
   175.00  0.11441    
   176.00  0.11875    
   177.00  0.12347    
   178.00  0.12769    
   179.00  0.13061    
   180.00  0.13165    
 |--------|------------|
0.546000     micron = Wavelength
 3.08579     = Extinction efficiency (Q)
 3.08579     = Scattering efficiency (Qs)
 0.00000     = Absorption efficiency (Qa)
 95.4495     = Lidar ratio
0.437501     micron^2 = <b> = Average surface area per particle
 1.35004     microns^2 = Extinction cross section (C)
 1.35004     microns^2 = Scattering cross section (Cs)
 0.00000     microns^2 = Absorption cross section (Ca)
 |----------------------------------------------------|
 | COMMENTAIRES:                                      |
 |----------------------------------------------------|
 |   -Cross section / <b> should = efficiency         |
 |    is independant of the normalisation of dN/dx    |
 |   -The integral of the phase fct / 4 pi over all   |
 |    directions (solid angle) = 1.                   |
 |   -The volume coefficient (k) is equal to C * N    |
 |      = cross section * Number density              |
 |      typical units: [um^2]*[particles/cm^3] =      |
 |      [10^-3 km-1]                                  |
 |      N = M/(d*4/3*pi*r^3) where d is the density   |
 |      of particle, M is the mass per unit volume    |
 |      and 4/3*pi*r^3 is the average volume  of a    |
 |      particle.                                     |
 |      typical units:  M -> [ug/m^3], d -> [g/cm^3]  |
 |                      r -> [um]                     |
 |      Lidar ratio= 4 pi Qe / phase_fct(180)*Qs      |
 |----------------------------------------------------|
