 |--------|------------|
 | ANGLE  |  PHASE FCT |
 |--------|------------|
     0.00   49.074    
     1.00   48.562    
     2.00   47.081    
     3.00   44.776    
     4.00   41.850    
     5.00   38.526    
     6.00   35.014    
     7.00   31.492    
     8.00   28.093    
     9.00   24.906    
    10.00   21.988    
    11.00   19.363    
    12.00   17.034    
    13.00   14.990    
    14.00   13.210    
    15.00   11.670    
    16.00   10.341    
    17.00   9.1967    
    18.00   8.2120    
    19.00   7.3637    
    20.00   6.6313    
    21.00   5.9968    
    22.00   5.4449    
    23.00   4.9626    
    24.00   4.5390    
    25.00   4.1650    
    26.00   3.8329    
    27.00   3.5365    
    28.00   3.2706    
    29.00   3.0309    
    30.00   2.8138    
    31.00   2.6165    
    32.00   2.4363    
    33.00   2.2714    
    34.00   2.1199    
    35.00   1.9805    
    36.00   1.8519    
    37.00   1.7329    
    38.00   1.6228    
    39.00   1.5208    
    40.00   1.4260    
    41.00   1.3380    
    42.00   1.2561    
    43.00   1.1799    
    44.00   1.1089    
    45.00   1.0427    
    46.00  0.98107    
    47.00  0.92355    
    48.00  0.86986    
    49.00  0.81974    
    50.00  0.77294    
    51.00  0.72921    
    52.00  0.68835    
    53.00  0.65015    
    54.00  0.61443    
    55.00  0.58101    
    56.00  0.54974    
    57.00  0.52047    
    58.00  0.49307    
    59.00  0.46741    
    60.00  0.44337    
    61.00  0.42085    
    62.00  0.39973    
    63.00  0.37993    
    64.00  0.36137    
    65.00  0.34396    
    66.00  0.32762    
    67.00  0.31228    
    68.00  0.29789    
    69.00  0.28437    
    70.00  0.27167    
    71.00  0.25974    
    72.00  0.24854    
    73.00  0.23800    
    74.00  0.22811    
    75.00  0.21880    
    76.00  0.21005    
    77.00  0.20181    
    78.00  0.19407    
    79.00  0.18679    
    80.00  0.17994    
    81.00  0.17350    
    82.00  0.16743    
    83.00  0.16173    
    84.00  0.15636    
    85.00  0.15131    
    86.00  0.14657    
    87.00  0.14210    
    88.00  0.13790    
    89.00  0.13395    
    90.00  0.13025    
    91.00  0.12677    
    92.00  0.12350    
    93.00  0.12044    
    94.00  0.11757    
    95.00  0.11488    
    96.00  0.11238    
    97.00  0.11004    
    98.00  0.10786    
    99.00  0.10584    
   100.00  0.10397    
   101.00  0.10224    
   102.00  0.10065    
   103.00  0.99201E-01
   104.00  0.97883E-01
   105.00  0.96694E-01
   106.00  0.95633E-01
   107.00  0.94698E-01
   108.00  0.93887E-01
   109.00  0.93200E-01
   110.00  0.92637E-01
   111.00  0.92197E-01
   112.00  0.91880E-01
   113.00  0.91689E-01
   114.00  0.91624E-01
   115.00  0.91687E-01
   116.00  0.91881E-01
   117.00  0.92208E-01
   118.00  0.92671E-01
   119.00  0.93275E-01
   120.00  0.94023E-01
   121.00  0.94920E-01
   122.00  0.95969E-01
   123.00  0.97176E-01
   124.00  0.98547E-01
   125.00  0.10009    
   126.00  0.10180    
   127.00  0.10370    
   128.00  0.10578    
   129.00  0.10805    
   130.00  0.11053    
   131.00  0.11320    
   132.00  0.11609    
   133.00  0.11919    
   134.00  0.12250    
   135.00  0.12604    
   136.00  0.12980    
   137.00  0.13379    
   138.00  0.13800    
   139.00  0.14244    
   140.00  0.14709    
   141.00  0.15197    
   142.00  0.15707    
   143.00  0.16238    
   144.00  0.16790    
   145.00  0.17362    
   146.00  0.17955    
   147.00  0.18569    
   148.00  0.19203    
   149.00  0.19858    
   150.00  0.20536    
   151.00  0.21236    
   152.00  0.21961    
   153.00  0.22710    
   154.00  0.23484    
   155.00  0.24281    
   156.00  0.25098    
   157.00  0.25925    
   158.00  0.26748    
   159.00  0.27544    
   160.00  0.28279    
   161.00  0.28908    
   162.00  0.29372    
   163.00  0.29602    
   164.00  0.29524    
   165.00  0.29065    
   166.00  0.28168    
   167.00  0.26809    
   168.00  0.25018    
   169.00  0.22891    
   170.00  0.20607    
   171.00  0.18413    
   172.00  0.16604    
   173.00  0.15467    
   174.00  0.15219    
   175.00  0.15928    
   176.00  0.17468    
   177.00  0.19500    
   178.00  0.21532    
   179.00  0.23031    
   180.00  0.23583    
 |--------|------------|
0.370000     micron = Wavelength
 2.97499     = Extinction efficiency (Q)
 2.97499     = Scattering efficiency (Qs)
 0.00000     = Absorption efficiency (Qa)
 53.2863     = Lidar ratio
0.437500     micron^2 = <b> = Average surface area per particle
 1.30156     microns^2 = Extinction cross section (C)
 1.30156     microns^2 = Scattering cross section (Cs)
0.243183E-15 microns^2 = Absorption cross section (Ca)
 |----------------------------------------------------|
 | COMMENTAIRES:                                      |
 |----------------------------------------------------|
 |   -Cross section / <b> should = efficiency         |
 |    is independant of the normalisation of dN/dx    |
 |   -The integral of the phase fct / 4 pi over all   |
 |    directions (solid angle) = 1.                   |
 |   -The volume coefficient (k) is equal to C * N    |
 |      = cross section * Number density              |
 |      typical units: [um^2]*[particles/cm^3] =      |
 |      [10^-3 km-1]                                  |
 |      N = M/(d*4/3*pi*r^3) where d is the density   |
 |      of particle, M is the mass per unit volume    |
 |      and 4/3*pi*r^3 is the average volume  of a    |
 |      particle.                                     |
 |      typical units:  M -> [ug/m^3], d -> [g/cm^3]  |
 |                      r -> [um]                     |
 |      Lidar ratio= 4 pi Qe / phase_fct(180)*Qs      |
 |----------------------------------------------------|
