 |--------|------------|
 | ANGLE  |  PHASE FCT |
 |--------|------------|
     0.00   8.7949    
     1.00   8.7863    
     2.00   8.7607    
     3.00   8.7182    
     4.00   8.6592    
     5.00   8.5841    
     6.00   8.4937    
     7.00   8.3886    
     8.00   8.2696    
     9.00   8.1377    
    10.00   7.9937    
    11.00   7.8388    
    12.00   7.6740    
    13.00   7.5003    
    14.00   7.3190    
    15.00   7.1310    
    16.00   6.9375    
    17.00   6.7395    
    18.00   6.5380    
    19.00   6.3341    
    20.00   6.1286    
    21.00   5.9225    
    22.00   5.7165    
    23.00   5.5114    
    24.00   5.3079    
    25.00   5.1067    
    26.00   4.9083    
    27.00   4.7131    
    28.00   4.5218    
    29.00   4.3345    
    30.00   4.1517    
    31.00   3.9737    
    32.00   3.8007    
    33.00   3.6328    
    34.00   3.4702    
    35.00   3.3129    
    36.00   3.1612    
    37.00   3.0149    
    38.00   2.8741    
    39.00   2.7388    
    40.00   2.6089    
    41.00   2.4843    
    42.00   2.3650    
    43.00   2.2508    
    44.00   2.1417    
    45.00   2.0374    
    46.00   1.9380    
    47.00   1.8431    
    48.00   1.7528    
    49.00   1.6667    
    50.00   1.5849    
    51.00   1.5070    
    52.00   1.4331    
    53.00   1.3628    
    54.00   1.2961    
    55.00   1.2328    
    56.00   1.1728    
    57.00   1.1158    
    58.00   1.0618    
    59.00   1.0107    
    60.00  0.96225    
    61.00  0.91636    
    62.00  0.87292    
    63.00  0.83179    
    64.00  0.79286    
    65.00  0.75602    
    66.00  0.72115    
    67.00  0.68817    
    68.00  0.65697    
    69.00  0.62745    
    70.00  0.59953    
    71.00  0.57312    
    72.00  0.54814    
    73.00  0.52452    
    74.00  0.50217    
    75.00  0.48103    
    76.00  0.46104    
    77.00  0.44213    
    78.00  0.42424    
    79.00  0.40731    
    80.00  0.39130    
    81.00  0.37616    
    82.00  0.36182    
    83.00  0.34826    
    84.00  0.33543    
    85.00  0.32329    
    86.00  0.31180    
    87.00  0.30093    
    88.00  0.29064    
    89.00  0.28090    
    90.00  0.27168    
    91.00  0.26295    
    92.00  0.25470    
    93.00  0.24688    
    94.00  0.23949    
    95.00  0.23249    
    96.00  0.22588    
    97.00  0.21961    
    98.00  0.21369    
    99.00  0.20809    
   100.00  0.20280    
   101.00  0.19780    
   102.00  0.19308    
   103.00  0.18862    
   104.00  0.18441    
   105.00  0.18044    
   106.00  0.17669    
   107.00  0.17317    
   108.00  0.16985    
   109.00  0.16673    
   110.00  0.16380    
   111.00  0.16105    
   112.00  0.15847    
   113.00  0.15606    
   114.00  0.15381    
   115.00  0.15171    
   116.00  0.14976    
   117.00  0.14795    
   118.00  0.14627    
   119.00  0.14472    
   120.00  0.14329    
   121.00  0.14199    
   122.00  0.14080    
   123.00  0.13972    
   124.00  0.13875    
   125.00  0.13787    
   126.00  0.13710    
   127.00  0.13642    
   128.00  0.13584    
   129.00  0.13534    
   130.00  0.13492    
   131.00  0.13459    
   132.00  0.13434    
   133.00  0.13416    
   134.00  0.13405    
   135.00  0.13402    
   136.00  0.13405    
   137.00  0.13415    
   138.00  0.13432    
   139.00  0.13454    
   140.00  0.13483    
   141.00  0.13518    
   142.00  0.13559    
   143.00  0.13605    
   144.00  0.13658    
   145.00  0.13717    
   146.00  0.13781    
   147.00  0.13853    
   148.00  0.13930    
   149.00  0.14014    
   150.00  0.14105    
   151.00  0.14204    
   152.00  0.14311    
   153.00  0.14425    
   154.00  0.14549    
   155.00  0.14681    
   156.00  0.14823    
   157.00  0.14976    
   158.00  0.15138    
   159.00  0.15311    
   160.00  0.15495    
   161.00  0.15690    
   162.00  0.15895    
   163.00  0.16110    
   164.00  0.16335    
   165.00  0.16566    
   166.00  0.16805    
   167.00  0.17047    
   168.00  0.17291    
   169.00  0.17535    
   170.00  0.17775    
   171.00  0.18007    
   172.00  0.18229    
   173.00  0.18436    
   174.00  0.18625    
   175.00  0.18792    
   176.00  0.18934    
   177.00  0.19048    
   178.00  0.19131    
   179.00  0.19181    
   180.00  0.19198    
 |--------|------------|
0.740000     micron = Wavelength
 1.63678     = Extinction efficiency (Q)
 1.63677     = Scattering efficiency (Qs)
0.894070E-05 = Absorption efficiency (Qa)
 65.4562     = Lidar ratio
0.110755     micron^2 = <b> = Average surface area per particle
0.181282     microns^2 = Extinction cross section (C)
0.181281     microns^2 = Scattering cross section (Cs)
0.988998E-06 microns^2 = Absorption cross section (Ca)
 |----------------------------------------------------|
 | COMMENTAIRES:                                      |
 |----------------------------------------------------|
 |   -Cross section / <b> should = efficiency         |
 |    is independant of the normalisation of dN/dx    |
 |   -The integral of the phase fct / 4 pi over all   |
 |    directions (solid angle) = 1.                   |
 |   -The volume coefficient (k) is equal to C * N    |
 |      = cross section * Number density              |
 |      typical units: [um^2]*[particles/cm^3] =      |
 |      [10^-3 km-1]                                  |
 |      N = M/(d*4/3*pi*r^3) where d is the density   |
 |      of particle, M is the mass per unit volume    |
 |      and 4/3*pi*r^3 is the average volume  of a    |
 |      particle.                                     |
 |      typical units:  M -> [ug/m^3], d -> [g/cm^3]  |
 |                      r -> [um]                     |
 |      Lidar ratio= 4 pi Qe / phase_fct(180)*Qs      |
 |----------------------------------------------------|
