 |--------|------------|
 | ANGLE  |  PHASE FCT |
 |--------|------------|
     0.00   20.203    
     1.00   20.153    
     2.00   20.002    
     3.00   19.756    
     4.00   19.418    
     5.00   18.996    
     6.00   18.498    
     7.00   17.935    
     8.00   17.315    
     9.00   16.650    
    10.00   15.949    
    11.00   15.223    
    12.00   14.481    
    13.00   13.732    
    14.00   12.982    
    15.00   12.240    
    16.00   11.511    
    17.00   10.800    
    18.00   10.111    
    19.00   9.4472    
    20.00   8.8112    
    21.00   8.2046    
    22.00   7.6288    
    23.00   7.0842    
    24.00   6.5709    
    25.00   6.0887    
    26.00   5.6370    
    27.00   5.2151    
    28.00   4.8219    
    29.00   4.4562    
    30.00   4.1168    
    31.00   3.8023    
    32.00   3.5113    
    33.00   3.2424    
    34.00   2.9943    
    35.00   2.7655    
    36.00   2.5548    
    37.00   2.3609    
    38.00   2.1825    
    39.00   2.0185    
    40.00   1.8677    
    41.00   1.7293    
    42.00   1.6021    
    43.00   1.4852    
    44.00   1.3779    
    45.00   1.2794    
    46.00   1.1888    
    47.00   1.1056    
    48.00   1.0291    
    49.00  0.95882    
    50.00  0.89415    
    51.00  0.83463    
    52.00  0.77984    
    53.00  0.72936    
    54.00  0.68284    
    55.00  0.63994    
    56.00  0.60035    
    57.00  0.56378    
    58.00  0.52999    
    59.00  0.49875    
    60.00  0.46983    
    61.00  0.44304    
    62.00  0.41822    
    63.00  0.39520    
    64.00  0.37382    
    65.00  0.35397    
    66.00  0.33551    
    67.00  0.31834    
    68.00  0.30235    
    69.00  0.28745    
    70.00  0.27356    
    71.00  0.26059    
    72.00  0.24849    
    73.00  0.23718    
    74.00  0.22660    
    75.00  0.21670    
    76.00  0.20743    
    77.00  0.19875    
    78.00  0.19062    
    79.00  0.18298    
    80.00  0.17582    
    81.00  0.16910    
    82.00  0.16278    
    83.00  0.15685    
    84.00  0.15127    
    85.00  0.14603    
    86.00  0.14110    
    87.00  0.13646    
    88.00  0.13209    
    89.00  0.12799    
    90.00  0.12412    
    91.00  0.12048    
    92.00  0.11706    
    93.00  0.11384    
    94.00  0.11081    
    95.00  0.10796    
    96.00  0.10528    
    97.00  0.10276    
    98.00  0.10040    
    99.00  0.98187E-01
   100.00  0.96111E-01
   101.00  0.94169E-01
   102.00  0.92353E-01
   103.00  0.90659E-01
   104.00  0.89081E-01
   105.00  0.87615E-01
   106.00  0.86256E-01
   107.00  0.85001E-01
   108.00  0.83846E-01
   109.00  0.82787E-01
   110.00  0.81823E-01
   111.00  0.80949E-01
   112.00  0.80163E-01
   113.00  0.79463E-01
   114.00  0.78848E-01
   115.00  0.78316E-01
   116.00  0.77864E-01
   117.00  0.77492E-01
   118.00  0.77198E-01
   119.00  0.76982E-01
   120.00  0.76842E-01
   121.00  0.76778E-01
   122.00  0.76789E-01
   123.00  0.76875E-01
   124.00  0.77035E-01
   125.00  0.77268E-01
   126.00  0.77576E-01
   127.00  0.77956E-01
   128.00  0.78409E-01
   129.00  0.78935E-01
   130.00  0.79533E-01
   131.00  0.80203E-01
   132.00  0.80945E-01
   133.00  0.81756E-01
   134.00  0.82637E-01
   135.00  0.83585E-01
   136.00  0.84601E-01
   137.00  0.85680E-01
   138.00  0.86821E-01
   139.00  0.88021E-01
   140.00  0.89275E-01
   141.00  0.90580E-01
   142.00  0.91930E-01
   143.00  0.93319E-01
   144.00  0.94740E-01
   145.00  0.96183E-01
   146.00  0.97641E-01
   147.00  0.99102E-01
   148.00  0.10056    
   149.00  0.10199    
   150.00  0.10338    
   151.00  0.10473    
   152.00  0.10601    
   153.00  0.10721    
   154.00  0.10832    
   155.00  0.10931    
   156.00  0.11019    
   157.00  0.11093    
   158.00  0.11153    
   159.00  0.11199    
   160.00  0.11232    
   161.00  0.11253    
   162.00  0.11265    
   163.00  0.11271    
   164.00  0.11274    
   165.00  0.11281    
   166.00  0.11297    
   167.00  0.11328    
   168.00  0.11380    
   169.00  0.11459    
   170.00  0.11568    
   171.00  0.11709    
   172.00  0.11880    
   173.00  0.12076    
   174.00  0.12289    
   175.00  0.12506    
   176.00  0.12714    
   177.00  0.12897    
   178.00  0.13040    
   179.00  0.13131    
   180.00  0.13163    
 |--------|------------|
0.520000     micron = Wavelength
 2.44469     = Extinction efficiency (Q)
 2.44469     = Scattering efficiency (Qs)
 0.00000     = Absorption efficiency (Qa)
 95.4703     = Lidar ratio
0.180223     micron^2 = <b> = Average surface area per particle
0.440588     microns^2 = Extinction cross section (C)
0.440588     microns^2 = Scattering cross section (Cs)
0.120082E-15 microns^2 = Absorption cross section (Ca)
 |----------------------------------------------------|
 | COMMENTAIRES:                                      |
 |----------------------------------------------------|
 |   -Cross section / <b> should = efficiency         |
 |    is independant of the normalisation of dN/dx    |
 |   -The integral of the phase fct / 4 pi over all   |
 |    directions (solid angle) = 1.                   |
 |   -The volume coefficient (k) is equal to C * N    |
 |      = cross section * Number density              |
 |      typical units: [um^2]*[particles/cm^3] =      |
 |      [10^-3 km-1]                                  |
 |      N = M/(d*4/3*pi*r^3) where d is the density   |
 |      of particle, M is the mass per unit volume    |
 |      and 4/3*pi*r^3 is the average volume  of a    |
 |      particle.                                     |
 |      typical units:  M -> [ug/m^3], d -> [g/cm^3]  |
 |                      r -> [um]                     |
 |      Lidar ratio= 4 pi Qe / phase_fct(180)*Qs      |
 |----------------------------------------------------|
