 |--------|------------|
 | ANGLE  |  PHASE FCT |
 |--------|------------|
     0.00   16.717    
     1.00   16.684    
     2.00   16.586    
     3.00   16.424    
     4.00   16.201    
     5.00   15.921    
     6.00   15.588    
     7.00   15.208    
     8.00   14.785    
     9.00   14.326    
    10.00   13.836    
    11.00   13.322    
    12.00   12.790    
    13.00   12.245    
    14.00   11.692    
    15.00   11.137    
    16.00   10.582    
    17.00   10.034    
    18.00   9.4939    
    19.00   8.9658    
    20.00   8.4520    
    21.00   7.9544    
    22.00   7.4747    
    23.00   7.0140    
    24.00   6.5733    
    25.00   6.1530    
    26.00   5.7535    
    27.00   5.3748    
    28.00   5.0168    
    29.00   4.6791    
    30.00   4.3612    
    31.00   4.0627    
    32.00   3.7828    
    33.00   3.5208    
    34.00   3.2759    
    35.00   3.0474    
    36.00   2.8344    
    37.00   2.6360    
    38.00   2.4515    
    39.00   2.2800    
    40.00   2.1207    
    41.00   1.9729    
    42.00   1.8358    
    43.00   1.7088    
    44.00   1.5910    
    45.00   1.4820    
    46.00   1.3810    
    47.00   1.2875    
    48.00   1.2010    
    49.00   1.1209    
    50.00   1.0467    
    51.00  0.97812    
    52.00  0.91461    
    53.00  0.85582    
    54.00  0.80138    
    55.00  0.75096    
    56.00  0.70426    
    57.00  0.66099    
    58.00  0.62088    
    59.00  0.58369    
    60.00  0.54920    
    61.00  0.51719    
    62.00  0.48747    
    63.00  0.45987    
    64.00  0.43423    
    65.00  0.41039    
    66.00  0.38821    
    67.00  0.36757    
    68.00  0.34835    
    69.00  0.33045    
    70.00  0.31376    
    71.00  0.29819    
    72.00  0.28367    
    73.00  0.27011    
    74.00  0.25744    
    75.00  0.24560    
    76.00  0.23452    
    77.00  0.22416    
    78.00  0.21446    
    79.00  0.20537    
    80.00  0.19686    
    81.00  0.18887    
    82.00  0.18139    
    83.00  0.17436    
    84.00  0.16776    
    85.00  0.16157    
    86.00  0.15575    
    87.00  0.15028    
    88.00  0.14514    
    89.00  0.14031    
    90.00  0.13577    
    91.00  0.13150    
    92.00  0.12748    
    93.00  0.12370    
    94.00  0.12015    
    95.00  0.11680    
    96.00  0.11366    
    97.00  0.11071    
    98.00  0.10793    
    99.00  0.10533    
   100.00  0.10288    
   101.00  0.10059    
   102.00  0.98440E-01
   103.00  0.96428E-01
   104.00  0.94547E-01
   105.00  0.92792E-01
   106.00  0.91156E-01
   107.00  0.89634E-01
   108.00  0.88222E-01
   109.00  0.86916E-01
   110.00  0.85710E-01
   111.00  0.84602E-01
   112.00  0.83588E-01
   113.00  0.82666E-01
   114.00  0.81831E-01
   115.00  0.81082E-01
   116.00  0.80416E-01
   117.00  0.79831E-01
   118.00  0.79324E-01
   119.00  0.78895E-01
   120.00  0.78540E-01
   121.00  0.78259E-01
   122.00  0.78051E-01
   123.00  0.77913E-01
   124.00  0.77844E-01
   125.00  0.77844E-01
   126.00  0.77911E-01
   127.00  0.78044E-01
   128.00  0.78242E-01
   129.00  0.78504E-01
   130.00  0.78828E-01
   131.00  0.79214E-01
   132.00  0.79660E-01
   133.00  0.80165E-01
   134.00  0.80727E-01
   135.00  0.81345E-01
   136.00  0.82017E-01
   137.00  0.82742E-01
   138.00  0.83516E-01
   139.00  0.84337E-01
   140.00  0.85203E-01
   141.00  0.86110E-01
   142.00  0.87056E-01
   143.00  0.88036E-01
   144.00  0.89047E-01
   145.00  0.90084E-01
   146.00  0.91142E-01
   147.00  0.92217E-01
   148.00  0.93304E-01
   149.00  0.94398E-01
   150.00  0.95493E-01
   151.00  0.96584E-01
   152.00  0.97668E-01
   153.00  0.98739E-01
   154.00  0.99795E-01
   155.00  0.10083    
   156.00  0.10185    
   157.00  0.10286    
   158.00  0.10384    
   159.00  0.10482    
   160.00  0.10580    
   161.00  0.10679    
   162.00  0.10780    
   163.00  0.10885    
   164.00  0.10995    
   165.00  0.11113    
   166.00  0.11240    
   167.00  0.11377    
   168.00  0.11525    
   169.00  0.11684    
   170.00  0.11855    
   171.00  0.12034    
   172.00  0.12220    
   173.00  0.12406    
   174.00  0.12589    
   175.00  0.12760    
   176.00  0.12914    
   177.00  0.13043    
   178.00  0.13140    
   179.00  0.13200    
   180.00  0.13221    
 |--------|------------|
0.616000     micron = Wavelength
 1.98371     = Extinction efficiency (Q)
 1.98371     = Scattering efficiency (Qs)
 0.00000     = Absorption efficiency (Qa)
 95.0498     = Lidar ratio
0.180223     micron^2 = <b> = Average surface area per particle
0.357511     microns^2 = Extinction cross section (C)
0.357511     microns^2 = Scattering cross section (Cs)
-.842562E-16 microns^2 = Absorption cross section (Ca)
 |----------------------------------------------------|
 | COMMENTAIRES:                                      |
 |----------------------------------------------------|
 |   -Cross section / <b> should = efficiency         |
 |    is independant of the normalisation of dN/dx    |
 |   -The integral of the phase fct / 4 pi over all   |
 |    directions (solid angle) = 1.                   |
 |   -The volume coefficient (k) is equal to C * N    |
 |      = cross section * Number density              |
 |      typical units: [um^2]*[particles/cm^3] =      |
 |      [10^-3 km-1]                                  |
 |      N = M/(d*4/3*pi*r^3) where d is the density   |
 |      of particle, M is the mass per unit volume    |
 |      and 4/3*pi*r^3 is the average volume  of a    |
 |      particle.                                     |
 |      typical units:  M -> [ug/m^3], d -> [g/cm^3]  |
 |                      r -> [um]                     |
 |      Lidar ratio= 4 pi Qe / phase_fct(180)*Qs      |
 |----------------------------------------------------|
