 |--------|------------|
 | ANGLE  |  PHASE FCT |
 |--------|------------|
     0.00   17.911    
     1.00   17.873    
     2.00   17.758    
     3.00   17.570    
     4.00   17.311    
     5.00   16.986    
     6.00   16.602    
     7.00   16.163    
     8.00   15.677    
     9.00   15.152    
    10.00   14.594    
    11.00   14.011    
    12.00   13.409    
    13.00   12.796    
    14.00   12.177    
    15.00   11.558    
    16.00   10.944    
    17.00   10.339    
    18.00   9.7466    
    19.00   9.1703    
    20.00   8.6125    
    21.00   8.0752    
    22.00   7.5598    
    23.00   7.0675    
    24.00   6.5990    
    25.00   6.1546    
    26.00   5.7343    
    27.00   5.3379    
    28.00   4.9650    
    29.00   4.6151    
    30.00   4.2874    
    31.00   3.9811    
    32.00   3.6952    
    33.00   3.4289    
    34.00   3.1812    
    35.00   2.9510    
    36.00   2.7373    
    37.00   2.5393    
    38.00   2.3558    
    39.00   2.1859    
    40.00   2.0288    
    41.00   1.8836    
    42.00   1.7493    
    43.00   1.6254    
    44.00   1.5109    
    45.00   1.4052    
    46.00   1.3076    
    47.00   1.2176    
    48.00   1.1345    
    49.00   1.0578    
    50.00  0.98696    
    51.00  0.92157    
    52.00  0.86119    
    53.00  0.80542    
    54.00  0.75388    
    55.00  0.70625    
    56.00  0.66220    
    57.00  0.62145    
    58.00  0.58374    
    59.00  0.54882    
    60.00  0.51647    
    61.00  0.48649    
    62.00  0.45868    
    63.00  0.43288    
    64.00  0.40892    
    65.00  0.38666    
    66.00  0.36597    
    67.00  0.34673    
    68.00  0.32881    
    69.00  0.31213    
    70.00  0.29658    
    71.00  0.28208    
    72.00  0.26855    
    73.00  0.25592    
    74.00  0.24411    
    75.00  0.23308    
    76.00  0.22276    
    77.00  0.21310    
    78.00  0.20406    
    79.00  0.19559    
    80.00  0.18764    
    81.00  0.18020    
    82.00  0.17321    
    83.00  0.16665    
    84.00  0.16049    
    85.00  0.15470    
    86.00  0.14926    
    87.00  0.14415    
    88.00  0.13934    
    89.00  0.13482    
    90.00  0.13057    
    91.00  0.12657    
    92.00  0.12281    
    93.00  0.11927    
    94.00  0.11594    
    95.00  0.11282    
    96.00  0.10987    
    97.00  0.10711    
    98.00  0.10451    
    99.00  0.10208    
   100.00  0.99789E-01
   101.00  0.97646E-01
   102.00  0.95640E-01
   103.00  0.93764E-01
   104.00  0.92012E-01
   105.00  0.90380E-01
   106.00  0.88861E-01
   107.00  0.87451E-01
   108.00  0.86147E-01
   109.00  0.84943E-01
   110.00  0.83837E-01
   111.00  0.82826E-01
   112.00  0.81905E-01
   113.00  0.81072E-01
   114.00  0.80326E-01
   115.00  0.79663E-01
   116.00  0.79081E-01
   117.00  0.78579E-01
   118.00  0.78155E-01
   119.00  0.77806E-01
   120.00  0.77533E-01
   121.00  0.77333E-01
   122.00  0.77205E-01
   123.00  0.77148E-01
   124.00  0.77162E-01
   125.00  0.77245E-01
   126.00  0.77396E-01
   127.00  0.77614E-01
   128.00  0.77900E-01
   129.00  0.78250E-01
   130.00  0.78666E-01
   131.00  0.79145E-01
   132.00  0.79687E-01
   133.00  0.80290E-01
   134.00  0.80953E-01
   135.00  0.81674E-01
   136.00  0.82452E-01
   137.00  0.83284E-01
   138.00  0.84168E-01
   139.00  0.85101E-01
   140.00  0.86080E-01
   141.00  0.87101E-01
   142.00  0.88160E-01
   143.00  0.89252E-01
   144.00  0.90373E-01
   145.00  0.91516E-01
   146.00  0.92676E-01
   147.00  0.93846E-01
   148.00  0.95018E-01
   149.00  0.96186E-01
   150.00  0.97341E-01
   151.00  0.98476E-01
   152.00  0.99584E-01
   153.00  0.10066    
   154.00  0.10169    
   155.00  0.10268    
   156.00  0.10361    
   157.00  0.10450    
   158.00  0.10534    
   159.00  0.10614    
   160.00  0.10690    
   161.00  0.10764    
   162.00  0.10838    
   163.00  0.10913    
   164.00  0.10993    
   165.00  0.11080    
   166.00  0.11176    
   167.00  0.11286    
   168.00  0.11410    
   169.00  0.11550    
   170.00  0.11707    
   171.00  0.11880    
   172.00  0.12065    
   173.00  0.12258    
   174.00  0.12451    
   175.00  0.12638    
   176.00  0.12808    
   177.00  0.12953    
   178.00  0.13063    
   179.00  0.13133    
   180.00  0.13156    
 |--------|------------|
0.580000     micron = Wavelength
 2.14985     = Extinction efficiency (Q)
 2.14985     = Scattering efficiency (Qs)
 0.00000     = Absorption efficiency (Qa)
 95.5152     = Lidar ratio
0.180223     micron^2 = <b> = Average surface area per particle
0.387453     microns^2 = Extinction cross section (C)
0.387453     microns^2 = Scattering cross section (Cs)
 0.00000     microns^2 = Absorption cross section (Ca)
 |----------------------------------------------------|
 | COMMENTAIRES:                                      |
 |----------------------------------------------------|
 |   -Cross section / <b> should = efficiency         |
 |    is independant of the normalisation of dN/dx    |
 |   -The integral of the phase fct / 4 pi over all   |
 |    directions (solid angle) = 1.                   |
 |   -The volume coefficient (k) is equal to C * N    |
 |      = cross section * Number density              |
 |      typical units: [um^2]*[particles/cm^3] =      |
 |      [10^-3 km-1]                                  |
 |      N = M/(d*4/3*pi*r^3) where d is the density   |
 |      of particle, M is the mass per unit volume    |
 |      and 4/3*pi*r^3 is the average volume  of a    |
 |      particle.                                     |
 |      typical units:  M -> [ug/m^3], d -> [g/cm^3]  |
 |                      r -> [um]                     |
 |      Lidar ratio= 4 pi Qe / phase_fct(180)*Qs      |
 |----------------------------------------------------|
