 |--------|------------|
 | ANGLE  |  PHASE FCT |
 |--------|------------|
     0.00   36.236    
     1.00   36.025    
     2.00   35.406    
     3.00   34.413    
     4.00   33.098    
     5.00   31.525    
     6.00   29.762    
     7.00   27.875    
     8.00   25.924    
     9.00   23.961    
    10.00   22.031    
    11.00   20.164    
    12.00   18.386    
    13.00   16.713    
    14.00   15.154    
    15.00   13.714    
    16.00   12.394    
    17.00   11.190    
    18.00   10.097    
    19.00   9.1095    
    20.00   8.2197    
    21.00   7.4199    
    22.00   6.7024    
    23.00   6.0596    
    24.00   5.4843    
    25.00   4.9696    
    26.00   4.5093    
    27.00   4.0975    
    28.00   3.7288    
    29.00   3.3986    
    30.00   3.1026    
    31.00   2.8370    
    32.00   2.5982    
    33.00   2.3834    
    34.00   2.1899    
    35.00   2.0152    
    36.00   1.8573    
    37.00   1.7143    
    38.00   1.5847    
    39.00   1.4669    
    40.00   1.3598    
    41.00   1.2621    
    42.00   1.1730    
    43.00   1.0916    
    44.00   1.0170    
    45.00  0.94862    
    46.00  0.88585    
    47.00  0.82815    
    48.00  0.77504    
    49.00  0.72609    
    50.00  0.68092    
    51.00  0.63920    
    52.00  0.60061    
    53.00  0.56490    
    54.00  0.53180    
    55.00  0.50110    
    56.00  0.47260    
    57.00  0.44612    
    58.00  0.42149    
    59.00  0.39858    
    60.00  0.37724    
    61.00  0.35735    
    62.00  0.33880    
    63.00  0.32149    
    64.00  0.30533    
    65.00  0.29022    
    66.00  0.27611    
    67.00  0.26290    
    68.00  0.25054    
    69.00  0.23897    
    70.00  0.22814    
    71.00  0.21798    
    72.00  0.20846    
    73.00  0.19952    
    74.00  0.19115    
    75.00  0.18328    
    76.00  0.17590    
    77.00  0.16897    
    78.00  0.16245    
    79.00  0.15633    
    80.00  0.15058    
    81.00  0.14518    
    82.00  0.14010    
    83.00  0.13533    
    84.00  0.13084    
    85.00  0.12662    
    86.00  0.12266    
    87.00  0.11893    
    88.00  0.11543    
    89.00  0.11214    
    90.00  0.10905    
    91.00  0.10615    
    92.00  0.10344    
    93.00  0.10089    
    94.00  0.98506E-01
    95.00  0.96276E-01
    96.00  0.94194E-01
    97.00  0.92251E-01
    98.00  0.90442E-01
    99.00  0.88762E-01
   100.00  0.87206E-01
   101.00  0.85767E-01
   102.00  0.84443E-01
   103.00  0.83229E-01
   104.00  0.82122E-01
   105.00  0.81118E-01
   106.00  0.80215E-01
   107.00  0.79409E-01
   108.00  0.78701E-01
   109.00  0.78087E-01
   110.00  0.77565E-01
   111.00  0.77134E-01
   112.00  0.76794E-01
   113.00  0.76543E-01
   114.00  0.76382E-01
   115.00  0.76310E-01
   116.00  0.76326E-01
   117.00  0.76431E-01
   118.00  0.76626E-01
   119.00  0.76911E-01
   120.00  0.77286E-01
   121.00  0.77753E-01
   122.00  0.78312E-01
   123.00  0.78965E-01
   124.00  0.79714E-01
   125.00  0.80559E-01
   126.00  0.81503E-01
   127.00  0.82547E-01
   128.00  0.83692E-01
   129.00  0.84940E-01
   130.00  0.86294E-01
   131.00  0.87754E-01
   132.00  0.89322E-01
   133.00  0.91001E-01
   134.00  0.92790E-01
   135.00  0.94693E-01
   136.00  0.96709E-01
   137.00  0.98840E-01
   138.00  0.10109    
   139.00  0.10345    
   140.00  0.10593    
   141.00  0.10853    
   142.00  0.11124    
   143.00  0.11407    
   144.00  0.11701    
   145.00  0.12007    
   146.00  0.12323    
   147.00  0.12650    
   148.00  0.12986    
   149.00  0.13331    
   150.00  0.13684    
   151.00  0.14042    
   152.00  0.14402    
   153.00  0.14762    
   154.00  0.15117    
   155.00  0.15461    
   156.00  0.15786    
   157.00  0.16082    
   158.00  0.16337    
   159.00  0.16538    
   160.00  0.16667    
   161.00  0.16709    
   162.00  0.16643    
   163.00  0.16454    
   164.00  0.16128    
   165.00  0.15659    
   166.00  0.15052    
   167.00  0.14326    
   168.00  0.13515    
   169.00  0.12673    
   170.00  0.11871    
   171.00  0.11186    
   172.00  0.10697    
   173.00  0.10465    
   174.00  0.10520    
   175.00  0.10848    
   176.00  0.11383    
   177.00  0.12015    
   178.00  0.12608    
   179.00  0.13029    
   180.00  0.13181    
 |--------|------------|
0.580000     micron = Wavelength
 3.12338     = Extinction efficiency (Q)
 3.12338     = Scattering efficiency (Qs)
 0.00000     = Absorption efficiency (Qa)
 95.3366     = Lidar ratio
0.625715     micron^2 = <b> = Average surface area per particle
 1.95435     microns^2 = Extinction cross section (C)
 1.95435     microns^2 = Scattering cross section (Cs)
 0.00000     microns^2 = Absorption cross section (Ca)
 |----------------------------------------------------|
 | COMMENTAIRES:                                      |
 |----------------------------------------------------|
 |   -Cross section / <b> should = efficiency         |
 |    is independant of the normalisation of dN/dx    |
 |   -The integral of the phase fct / 4 pi over all   |
 |    directions (solid angle) = 1.                   |
 |   -The volume coefficient (k) is equal to C * N    |
 |      = cross section * Number density              |
 |      typical units: [um^2]*[particles/cm^3] =      |
 |      [10^-3 km-1]                                  |
 |      N = M/(d*4/3*pi*r^3) where d is the density   |
 |      of particle, M is the mass per unit volume    |
 |      and 4/3*pi*r^3 is the average volume  of a    |
 |      particle.                                     |
 |      typical units:  M -> [ug/m^3], d -> [g/cm^3]  |
 |                      r -> [um]                     |
 |      Lidar ratio= 4 pi Qe / phase_fct(180)*Qs      |
 |----------------------------------------------------|
