 |--------|------------|
 | ANGLE  |  PHASE FCT |
 |--------|------------|
     0.00   55.653    
     1.00   54.972    
     2.00   53.011    
     3.00   49.989    
     4.00   46.211    
     5.00   41.997    
     6.00   37.636    
     7.00   33.355    
     8.00   29.316    
     9.00   25.617    
    10.00   22.306    
    11.00   19.395    
    12.00   16.870    
    13.00   14.701    
    14.00   12.851    
    15.00   11.280    
    16.00   9.9493    
    17.00   8.8216    
    18.00   7.8647    
    19.00   7.0500    
    20.00   6.3534    
    21.00   5.7544    
    22.00   5.2360    
    23.00   4.7843    
    24.00   4.3879    
    25.00   4.0376    
    26.00   3.7259    
    27.00   3.4468    
    28.00   3.1953    
    29.00   2.9675    
    30.00   2.7602    
    31.00   2.5708    
    32.00   2.3971    
    33.00   2.2373    
    34.00   2.0899    
    35.00   1.9537    
    36.00   1.8276    
    37.00   1.7107    
    38.00   1.6021    
    39.00   1.5013    
    40.00   1.4075    
    41.00   1.3202    
    42.00   1.2390    
    43.00   1.1633    
    44.00   1.0927    
    45.00   1.0269    
    46.00  0.96561    
    47.00  0.90839    
    48.00  0.85499    
    49.00  0.80515    
    50.00  0.75862    
    51.00  0.71516    
    52.00  0.67457    
    53.00  0.63663    
    54.00  0.60118    
    55.00  0.56803    
    56.00  0.53703    
    57.00  0.50804    
    58.00  0.48090    
    59.00  0.45551    
    60.00  0.43173    
    61.00  0.40947    
    62.00  0.38861    
    63.00  0.36907    
    64.00  0.35075    
    65.00  0.33359    
    66.00  0.31749    
    67.00  0.30239    
    68.00  0.28823    
    69.00  0.27494    
    70.00  0.26246    
    71.00  0.25076    
    72.00  0.23976    
    73.00  0.22944    
    74.00  0.21975    
    75.00  0.21065    
    76.00  0.20209    
    77.00  0.19406    
    78.00  0.18651    
    79.00  0.17942    
    80.00  0.17276    
    81.00  0.16650    
    82.00  0.16062    
    83.00  0.15510    
    84.00  0.14991    
    85.00  0.14503    
    86.00  0.14046    
    87.00  0.13617    
    88.00  0.13214    
    89.00  0.12836    
    90.00  0.12482    
    91.00  0.12150    
    92.00  0.11839    
    93.00  0.11549    
    94.00  0.11278    
    95.00  0.11025    
    96.00  0.10790    
    97.00  0.10571    
    98.00  0.10369    
    99.00  0.10181    
   100.00  0.10009    
   101.00  0.98504E-01
   102.00  0.97060E-01
   103.00  0.95750E-01
   104.00  0.94572E-01
   105.00  0.93522E-01
   106.00  0.92600E-01
   107.00  0.91802E-01
   108.00  0.91128E-01
   109.00  0.90577E-01
   110.00  0.90150E-01
   111.00  0.89847E-01
   112.00  0.89669E-01
   113.00  0.89617E-01
   114.00  0.89693E-01
   115.00  0.89900E-01
   116.00  0.90240E-01
   117.00  0.90717E-01
   118.00  0.91335E-01
   119.00  0.92097E-01
   120.00  0.93008E-01
   121.00  0.94073E-01
   122.00  0.95296E-01
   123.00  0.96684E-01
   124.00  0.98241E-01
   125.00  0.99973E-01
   126.00  0.10189    
   127.00  0.10399    
   128.00  0.10628    
   129.00  0.10876    
   130.00  0.11145    
   131.00  0.11434    
   132.00  0.11744    
   133.00  0.12074    
   134.00  0.12426    
   135.00  0.12798    
   136.00  0.13190    
   137.00  0.13602    
   138.00  0.14033    
   139.00  0.14483    
   140.00  0.14949    
   141.00  0.15430    
   142.00  0.15926    
   143.00  0.16434    
   144.00  0.16953    
   145.00  0.17481    
   146.00  0.18017    
   147.00  0.18561    
   148.00  0.19111    
   149.00  0.19668    
   150.00  0.20234    
   151.00  0.20810    
   152.00  0.21401    
   153.00  0.22010    
   154.00  0.22643    
   155.00  0.23306    
   156.00  0.24003    
   157.00  0.24736    
   158.00  0.25503    
   159.00  0.26293    
   160.00  0.27087    
   161.00  0.27849    
   162.00  0.28528    
   163.00  0.29053    
   164.00  0.29338    
   165.00  0.29285    
   166.00  0.28801    
   167.00  0.27815    
   168.00  0.26303    
   169.00  0.24318    
   170.00  0.22014    
   171.00  0.19645    
   172.00  0.17553    
   173.00  0.16111    
   174.00  0.15634    
   175.00  0.16281    
   176.00  0.17968    
   177.00  0.20327    
   178.00  0.22762    
   179.00  0.24592    
   180.00  0.25272    
 |--------|------------|
0.410000     micron = Wavelength
 2.91203     = Extinction efficiency (Q)
 2.91203     = Scattering efficiency (Qs)
 0.00000     = Absorption efficiency (Qa)
 49.7239     = Lidar ratio
0.625715     micron^2 = <b> = Average surface area per particle
 1.82210     microns^2 = Extinction cross section (C)
 1.82210     microns^2 = Scattering cross section (Cs)
0.597211E-15 microns^2 = Absorption cross section (Ca)
 |----------------------------------------------------|
 | COMMENTAIRES:                                      |
 |----------------------------------------------------|
 |   -Cross section / <b> should = efficiency         |
 |    is independant of the normalisation of dN/dx    |
 |   -The integral of the phase fct / 4 pi over all   |
 |    directions (solid angle) = 1.                   |
 |   -The volume coefficient (k) is equal to C * N    |
 |      = cross section * Number density              |
 |      typical units: [um^2]*[particles/cm^3] =      |
 |      [10^-3 km-1]                                  |
 |      N = M/(d*4/3*pi*r^3) where d is the density   |
 |      of particle, M is the mass per unit volume    |
 |      and 4/3*pi*r^3 is the average volume  of a    |
 |      particle.                                     |
 |      typical units:  M -> [ug/m^3], d -> [g/cm^3]  |
 |                      r -> [um]                     |
 |      Lidar ratio= 4 pi Qe / phase_fct(180)*Qs      |
 |----------------------------------------------------|
