 |--------|------------|
 | ANGLE  |  PHASE FCT |
 |--------|------------|
     0.00   13.959    
     1.00   13.933    
     2.00   13.858    
     3.00   13.733    
     4.00   13.561    
     5.00   13.345    
     6.00   13.088    
     7.00   12.794    
     8.00   12.468    
     9.00   12.112    
    10.00   11.733    
    11.00   11.334    
    12.00   10.919    
    13.00   10.494    
    14.00   10.062    
    15.00   9.6255    
    16.00   9.1893    
    17.00   8.7559    
    18.00   8.3278    
    19.00   7.9074    
    20.00   7.4965    
    21.00   7.0969    
    22.00   6.7097    
    23.00   6.3362    
    24.00   5.9770    
    25.00   5.6326    
    26.00   5.3035    
    27.00   4.9897    
    28.00   4.6914    
    29.00   4.4083    
    30.00   4.1403    
    31.00   3.8869    
    32.00   3.6480    
    33.00   3.4228    
    34.00   3.2110    
    35.00   3.0120    
    36.00   2.8252    
    37.00   2.6501    
    38.00   2.4861    
    39.00   2.3326    
    40.00   2.1890    
    41.00   2.0548    
    42.00   1.9294    
    43.00   1.8123    
    44.00   1.7030    
    45.00   1.6010    
    46.00   1.5058    
    47.00   1.4170    
    48.00   1.3341    
    49.00   1.2568    
    50.00   1.1847    
    51.00   1.1174    
    52.00   1.0546    
    53.00  0.99606    
    54.00  0.94136    
    55.00  0.89029    
    56.00  0.84259    
    57.00  0.79803    
    58.00  0.75638    
    59.00  0.71744    
    60.00  0.68101    
    61.00  0.64693    
    62.00  0.61502    
    63.00  0.58513    
    64.00  0.55713    
    65.00  0.53088    
    66.00  0.50626    
    67.00  0.48316    
    68.00  0.46147    
    69.00  0.44110    
    70.00  0.42196    
    71.00  0.40396    
    72.00  0.38703    
    73.00  0.37111    
    74.00  0.35611    
    75.00  0.34199    
    76.00  0.32868    
    77.00  0.31613    
    78.00  0.30431    
    79.00  0.29315    
    80.00  0.28262    
    81.00  0.27269    
    82.00  0.26330    
    83.00  0.25445    
    84.00  0.24608    
    85.00  0.23817    
    86.00  0.23071    
    87.00  0.22365    
    88.00  0.21698    
    89.00  0.21069    
    90.00  0.20474    
    91.00  0.19912    
    92.00  0.19381    
    93.00  0.18881    
    94.00  0.18408    
    95.00  0.17963    
    96.00  0.17543    
    97.00  0.17148    
    98.00  0.16777    
    99.00  0.16428    
   100.00  0.16100    
   101.00  0.15793    
   102.00  0.15507    
   103.00  0.15239    
   104.00  0.14990    
   105.00  0.14759    
   106.00  0.14545    
   107.00  0.14348    
   108.00  0.14168    
   109.00  0.14004    
   110.00  0.13855    
   111.00  0.13721    
   112.00  0.13603    
   113.00  0.13499    
   114.00  0.13410    
   115.00  0.13334    
   116.00  0.13273    
   117.00  0.13226    
   118.00  0.13192    
   119.00  0.13172    
   120.00  0.13165    
   121.00  0.13172    
   122.00  0.13191    
   123.00  0.13224    
   124.00  0.13269    
   125.00  0.13327    
   126.00  0.13398    
   127.00  0.13481    
   128.00  0.13576    
   129.00  0.13682    
   130.00  0.13800    
   131.00  0.13929    
   132.00  0.14069    
   133.00  0.14218    
   134.00  0.14377    
   135.00  0.14544    
   136.00  0.14718    
   137.00  0.14899    
   138.00  0.15086    
   139.00  0.15276    
   140.00  0.15469    
   141.00  0.15664    
   142.00  0.15858    
   143.00  0.16050    
   144.00  0.16237    
   145.00  0.16419    
   146.00  0.16593    
   147.00  0.16757    
   148.00  0.16909    
   149.00  0.17049    
   150.00  0.17174    
   151.00  0.17285    
   152.00  0.17380    
   153.00  0.17462    
   154.00  0.17530    
   155.00  0.17588    
   156.00  0.17639    
   157.00  0.17688    
   158.00  0.17741    
   159.00  0.17804    
   160.00  0.17887    
   161.00  0.17998    
   162.00  0.18148    
   163.00  0.18345    
   164.00  0.18599    
   165.00  0.18919    
   166.00  0.19309    
   167.00  0.19775    
   168.00  0.20315    
   169.00  0.20925    
   170.00  0.21597    
   171.00  0.22317    
   172.00  0.23065    
   173.00  0.23820    
   174.00  0.24556    
   175.00  0.25244    
   176.00  0.25855    
   177.00  0.26364    
   178.00  0.26745    
   179.00  0.26982    
   180.00  0.27062    
 |--------|------------|
0.470000     micron = Wavelength
 2.90987     = Extinction efficiency (Q)
 2.90987     = Scattering efficiency (Qs)
 0.00000     = Absorption efficiency (Qa)
 46.4350     = Lidar ratio
0.110755     micron^2 = <b> = Average surface area per particle
0.322283     microns^2 = Extinction cross section (C)
0.322283     microns^2 = Scattering cross section (Cs)
 0.00000     microns^2 = Absorption cross section (Ca)
 |----------------------------------------------------|
 | COMMENTAIRES:                                      |
 |----------------------------------------------------|
 |   -Cross section / <b> should = efficiency         |
 |    is independant of the normalisation of dN/dx    |
 |   -The integral of the phase fct / 4 pi over all   |
 |    directions (solid angle) = 1.                   |
 |   -The volume coefficient (k) is equal to C * N    |
 |      = cross section * Number density              |
 |      typical units: [um^2]*[particles/cm^3] =      |
 |      [10^-3 km-1]                                  |
 |      N = M/(d*4/3*pi*r^3) where d is the density   |
 |      of particle, M is the mass per unit volume    |
 |      and 4/3*pi*r^3 is the average volume  of a    |
 |      particle.                                     |
 |      typical units:  M -> [ug/m^3], d -> [g/cm^3]  |
 |                      r -> [um]                     |
 |      Lidar ratio= 4 pi Qe / phase_fct(180)*Qs      |
 |----------------------------------------------------|
