 |--------|------------|
 | ANGLE  |  PHASE FCT |
 |--------|------------|
     0.00   24.606    
     1.00   24.527    
     2.00   24.293    
     3.00   23.911    
     4.00   23.391    
     5.00   22.748    
     6.00   21.998    
     7.00   21.158    
     8.00   20.247    
     9.00   19.283    
    10.00   18.283    
    11.00   17.264    
    12.00   16.240    
    13.00   15.223    
    14.00   14.223    
    15.00   13.251    
    16.00   12.313    
    17.00   11.414    
    18.00   10.559    
    19.00   9.7491    
    20.00   8.9868    
    21.00   8.2724    
    22.00   7.6056    
    23.00   6.9855    
    24.00   6.4107    
    25.00   5.8794    
    26.00   5.3896    
    27.00   4.9391    
    28.00   4.5254    
    29.00   4.1463    
    30.00   3.7993    
    31.00   3.4821    
    32.00   3.1925    
    33.00   2.9283    
    34.00   2.6874    
    35.00   2.4679    
    36.00   2.2680    
    37.00   2.0858    
    38.00   1.9199    
    39.00   1.7689    
    40.00   1.6312    
    41.00   1.5058    
    42.00   1.3916    
    43.00   1.2873    
    44.00   1.1922    
    45.00   1.1054    
    46.00   1.0261    
    47.00  0.95355    
    48.00  0.88719    
    49.00  0.82643    
    50.00  0.77073    
    51.00  0.71965    
    52.00  0.67274    
    53.00  0.62962    
    54.00  0.58995    
    55.00  0.55342    
    56.00  0.51975    
    57.00  0.48868    
    58.00  0.45998    
    59.00  0.43345    
    60.00  0.40890    
    61.00  0.38615    
    62.00  0.36507    
    63.00  0.34549    
    64.00  0.32731    
    65.00  0.31041    
    66.00  0.29468    
    67.00  0.28002    
    68.00  0.26636    
    69.00  0.25362    
    70.00  0.24172    
    71.00  0.23061    
    72.00  0.22022    
    73.00  0.21049    
    74.00  0.20139    
    75.00  0.19286    
    76.00  0.18486    
    77.00  0.17736    
    78.00  0.17032    
    79.00  0.16372    
    80.00  0.15751    
    81.00  0.15168    
    82.00  0.14620    
    83.00  0.14104    
    84.00  0.13619    
    85.00  0.13163    
    86.00  0.12734    
    87.00  0.12330    
    88.00  0.11950    
    89.00  0.11592    
    90.00  0.11255    
    91.00  0.10938    
    92.00  0.10640    
    93.00  0.10360    
    94.00  0.10097    
    95.00  0.98490E-01
    96.00  0.96166E-01
    97.00  0.93985E-01
    98.00  0.91941E-01
    99.00  0.90028E-01
   100.00  0.88239E-01
   101.00  0.86569E-01
   102.00  0.85013E-01
   103.00  0.83567E-01
   104.00  0.82225E-01
   105.00  0.80985E-01
   106.00  0.79843E-01
   107.00  0.78795E-01
   108.00  0.77838E-01
   109.00  0.76970E-01
   110.00  0.76189E-01
   111.00  0.75493E-01
   112.00  0.74879E-01
   113.00  0.74345E-01
   114.00  0.73891E-01
   115.00  0.73516E-01
   116.00  0.73217E-01
   117.00  0.72995E-01
   118.00  0.72849E-01
   119.00  0.72779E-01
   120.00  0.72783E-01
   121.00  0.72862E-01
   122.00  0.73015E-01
   123.00  0.73244E-01
   124.00  0.73548E-01
   125.00  0.73927E-01
   126.00  0.74382E-01
   127.00  0.74914E-01
   128.00  0.75522E-01
   129.00  0.76208E-01
   130.00  0.76972E-01
   131.00  0.77814E-01
   132.00  0.78734E-01
   133.00  0.79734E-01
   134.00  0.80813E-01
   135.00  0.81971E-01
   136.00  0.83207E-01
   137.00  0.84521E-01
   138.00  0.85910E-01
   139.00  0.87374E-01
   140.00  0.88909E-01
   141.00  0.90512E-01
   142.00  0.92179E-01
   143.00  0.93902E-01
   144.00  0.95676E-01
   145.00  0.97491E-01
   146.00  0.99337E-01
   147.00  0.10120    
   148.00  0.10307    
   149.00  0.10492    
   150.00  0.10674    
   151.00  0.10851    
   152.00  0.11019    
   153.00  0.11176    
   154.00  0.11319    
   155.00  0.11444    
   156.00  0.11550    
   157.00  0.11631    
   158.00  0.11686    
   159.00  0.11711    
   160.00  0.11705    
   161.00  0.11668    
   162.00  0.11599    
   163.00  0.11502    
   164.00  0.11382    
   165.00  0.11245    
   166.00  0.11102    
   167.00  0.10964    
   168.00  0.10846    
   169.00  0.10760    
   170.00  0.10720    
   171.00  0.10737    
   172.00  0.10817    
   173.00  0.10959    
   174.00  0.11155    
   175.00  0.11387    
   176.00  0.11635    
   177.00  0.11869    
   178.00  0.12061    
   179.00  0.12188    
   180.00  0.12232    
 |--------|------------|
0.690000     micron = Wavelength
 2.72989     = Extinction efficiency (Q)
 2.72989     = Scattering efficiency (Qs)
 0.00000     = Absorption efficiency (Qa)
 102.734     = Lidar ratio
0.437500     micron^2 = <b> = Average surface area per particle
 1.19433     microns^2 = Extinction cross section (C)
 1.19433     microns^2 = Scattering cross section (Cs)
 0.00000     microns^2 = Absorption cross section (Ca)
 |----------------------------------------------------|
 | COMMENTAIRES:                                      |
 |----------------------------------------------------|
 |   -Cross section / <b> should = efficiency         |
 |    is independant of the normalisation of dN/dx    |
 |   -The integral of the phase fct / 4 pi over all   |
 |    directions (solid angle) = 1.                   |
 |   -The volume coefficient (k) is equal to C * N    |
 |      = cross section * Number density              |
 |      typical units: [um^2]*[particles/cm^3] =      |
 |      [10^-3 km-1]                                  |
 |      N = M/(d*4/3*pi*r^3) where d is the density   |
 |      of particle, M is the mass per unit volume    |
 |      and 4/3*pi*r^3 is the average volume  of a    |
 |      particle.                                     |
 |      typical units:  M -> [ug/m^3], d -> [g/cm^3]  |
 |                      r -> [um]                     |
 |      Lidar ratio= 4 pi Qe / phase_fct(180)*Qs      |
 |----------------------------------------------------|
