 |--------|------------|
 | ANGLE  |  PHASE FCT |
 |--------|------------|
     0.00   17.569    
     1.00   17.532    
     2.00   17.422    
     3.00   17.242    
     4.00   16.994    
     5.00   16.682    
     6.00   16.313    
     7.00   15.891    
     8.00   15.424    
     9.00   14.918    
    10.00   14.380    
    11.00   13.817    
    12.00   13.236    
    13.00   12.642    
    14.00   12.043    
    15.00   11.442    
    16.00   10.845    
    17.00   10.256    
    18.00   9.6789    
    19.00   9.1163    
    20.00   8.5709    
    21.00   8.0447    
    22.00   7.5393    
    23.00   7.0558    
    24.00   6.5949    
    25.00   6.1571    
    26.00   5.7424    
    27.00   5.3508    
    28.00   4.9819    
    29.00   4.6352    
    30.00   4.3100    
    31.00   4.0057    
    32.00   3.7213    
    33.00   3.4560    
    34.00   3.2088    
    35.00   2.9789    
    36.00   2.7653    
    37.00   2.5670    
    38.00   2.3830    
    39.00   2.2126    
    40.00   2.0547    
    41.00   1.9087    
    42.00   1.7736    
    43.00   1.6486    
    44.00   1.5332    
    45.00   1.4265    
    46.00   1.3279    
    47.00   1.2369    
    48.00   1.1527    
    49.00   1.0750    
    50.00   1.0033    
    51.00  0.93697    
    52.00  0.87570    
    53.00  0.81907    
    54.00  0.76671    
    55.00  0.71830    
    56.00  0.67351    
    57.00  0.63206    
    58.00  0.59368    
    59.00  0.55813    
    60.00  0.52519    
    61.00  0.49465    
    62.00  0.46632    
    63.00  0.44003    
    64.00  0.41561    
    65.00  0.39292    
    66.00  0.37182    
    67.00  0.35220    
    68.00  0.33393    
    69.00  0.31692    
    70.00  0.30107    
    71.00  0.28628    
    72.00  0.27248    
    73.00  0.25960    
    74.00  0.24757    
    75.00  0.23632    
    76.00  0.22580    
    77.00  0.21596    
    78.00  0.20674    
    79.00  0.19811    
    80.00  0.19001    
    81.00  0.18242    
    82.00  0.17530    
    83.00  0.16862    
    84.00  0.16235    
    85.00  0.15645    
    86.00  0.15092    
    87.00  0.14571    
    88.00  0.14082    
    89.00  0.13622    
    90.00  0.13189    
    91.00  0.12782    
    92.00  0.12399    
    93.00  0.12039    
    94.00  0.11700    
    95.00  0.11382    
    96.00  0.11082    
    97.00  0.10801    
    98.00  0.10537    
    99.00  0.10289    
   100.00  0.10056    
   101.00  0.98377E-01
   102.00  0.96334E-01
   103.00  0.94423E-01
   104.00  0.92638E-01
   105.00  0.90973E-01
   106.00  0.89423E-01
   107.00  0.87984E-01
   108.00  0.86651E-01
   109.00  0.85421E-01
   110.00  0.84288E-01
   111.00  0.83251E-01
   112.00  0.82305E-01
   113.00  0.81449E-01
   114.00  0.80679E-01
   115.00  0.79992E-01
   116.00  0.79387E-01
   117.00  0.78862E-01
   118.00  0.78416E-01
   119.00  0.78045E-01
   120.00  0.77749E-01
   121.00  0.77526E-01
   122.00  0.77376E-01
   123.00  0.77296E-01
   124.00  0.77286E-01
   125.00  0.77345E-01
   126.00  0.77472E-01
   127.00  0.77666E-01
   128.00  0.77926E-01
   129.00  0.78250E-01
   130.00  0.78639E-01
   131.00  0.79090E-01
   132.00  0.79603E-01
   133.00  0.80177E-01
   134.00  0.80810E-01
   135.00  0.81500E-01
   136.00  0.82245E-01
   137.00  0.83044E-01
   138.00  0.83894E-01
   139.00  0.84792E-01
   140.00  0.85736E-01
   141.00  0.86721E-01
   142.00  0.87744E-01
   143.00  0.88801E-01
   144.00  0.89886E-01
   145.00  0.90995E-01
   146.00  0.92121E-01
   147.00  0.93259E-01
   148.00  0.94402E-01
   149.00  0.95544E-01
   150.00  0.96678E-01
   151.00  0.97796E-01
   152.00  0.98892E-01
   153.00  0.99961E-01
   154.00  0.10100    
   155.00  0.10199    
   156.00  0.10295    
   157.00  0.10387    
   158.00  0.10475    
   159.00  0.10560    
   160.00  0.10643    
   161.00  0.10724    
   162.00  0.10806    
   163.00  0.10891    
   164.00  0.10980    
   165.00  0.11077    
   166.00  0.11183    
   167.00  0.11301    
   168.00  0.11433    
   169.00  0.11580    
   170.00  0.11741    
   171.00  0.11916    
   172.00  0.12102    
   173.00  0.12293    
   174.00  0.12483    
   175.00  0.12665    
   176.00  0.12831    
   177.00  0.12971    
   178.00  0.13077    
   179.00  0.13144    
   180.00  0.13166    
 |--------|------------|
0.590000     micron = Wavelength
 2.10223     = Extinction efficiency (Q)
 2.10223     = Scattering efficiency (Qs)
 0.00000     = Absorption efficiency (Qa)
 95.4439     = Lidar ratio
0.180223     micron^2 = <b> = Average surface area per particle
0.378870     microns^2 = Extinction cross section (C)
0.378870     microns^2 = Scattering cross section (Cs)
 0.00000     microns^2 = Absorption cross section (Ca)
 |----------------------------------------------------|
 | COMMENTAIRES:                                      |
 |----------------------------------------------------|
 |   -Cross section / <b> should = efficiency         |
 |    is independant of the normalisation of dN/dx    |
 |   -The integral of the phase fct / 4 pi over all   |
 |    directions (solid angle) = 1.                   |
 |   -The volume coefficient (k) is equal to C * N    |
 |      = cross section * Number density              |
 |      typical units: [um^2]*[particles/cm^3] =      |
 |      [10^-3 km-1]                                  |
 |      N = M/(d*4/3*pi*r^3) where d is the density   |
 |      of particle, M is the mass per unit volume    |
 |      and 4/3*pi*r^3 is the average volume  of a    |
 |      particle.                                     |
 |      typical units:  M -> [ug/m^3], d -> [g/cm^3]  |
 |                      r -> [um]                     |
 |      Lidar ratio= 4 pi Qe / phase_fct(180)*Qs      |
 |----------------------------------------------------|
