 |--------|------------|
 | ANGLE  |  PHASE FCT |
 |--------|------------|
     0.00   20.493    
     1.00   20.439    
     2.00   20.281    
     3.00   20.021    
     4.00   19.665    
     5.00   19.222    
     6.00   18.700    
     7.00   18.110    
     8.00   17.463    
     9.00   16.770    
    10.00   16.043    
    11.00   15.290    
    12.00   14.524    
    13.00   13.751    
    14.00   12.982    
    15.00   12.221    
    16.00   11.477    
    17.00   10.752    
    18.00   10.052    
    19.00   9.3799    
    20.00   8.7373    
    21.00   8.1260    
    22.00   7.5471    
    23.00   7.0010    
    24.00   6.4874    
    25.00   6.0061    
    26.00   5.5562    
    27.00   5.1368    
    28.00   4.7467    
    29.00   4.3846    
    30.00   4.0491    
    31.00   3.7387    
    32.00   3.4520    
    33.00   3.1875    
    34.00   2.9437    
    35.00   2.7193    
    36.00   2.5127    
    37.00   2.3228    
    38.00   2.1483    
    39.00   1.9880    
    40.00   1.8408    
    41.00   1.7056    
    42.00   1.5814    
    43.00   1.4674    
    44.00   1.3628    
    45.00   1.2666    
    46.00   1.1783    
    47.00   1.0972    
    48.00   1.0226    
    49.00  0.95393    
    50.00  0.89079    
    51.00  0.83265    
    52.00  0.77909    
    53.00  0.72972    
    54.00  0.68417    
    55.00  0.64213    
    56.00  0.60330    
    57.00  0.56740    
    58.00  0.53419    
    59.00  0.50345    
    60.00  0.47496    
    61.00  0.44855    
    62.00  0.42403    
    63.00  0.40126    
    64.00  0.38010    
    65.00  0.36042    
    66.00  0.34209    
    67.00  0.32502    
    68.00  0.30910    
    69.00  0.29424    
    70.00  0.28037    
    71.00  0.26741    
    72.00  0.25529    
    73.00  0.24395    
    74.00  0.23333    
    75.00  0.22338    
    76.00  0.21406    
    77.00  0.20531    
    78.00  0.19709    
    79.00  0.18938    
    80.00  0.18214    
    81.00  0.17533    
    82.00  0.16893    
    83.00  0.16291    
    84.00  0.15724    
    85.00  0.15191    
    86.00  0.14689    
    87.00  0.14217    
    88.00  0.13772    
    89.00  0.13352    
    90.00  0.12958    
    91.00  0.12586    
    92.00  0.12236    
    93.00  0.11907    
    94.00  0.11597    
    95.00  0.11305    
    96.00  0.11031    
    97.00  0.10773    
    98.00  0.10532    
    99.00  0.10305    
   100.00  0.10092    
   101.00  0.98938E-01
   102.00  0.97083E-01
   103.00  0.95354E-01
   104.00  0.93745E-01
   105.00  0.92253E-01
   106.00  0.90873E-01
   107.00  0.89602E-01
   108.00  0.88435E-01
   109.00  0.87371E-01
   110.00  0.86405E-01
   111.00  0.85537E-01
   112.00  0.84762E-01
   113.00  0.84080E-01
   114.00  0.83488E-01
   115.00  0.82985E-01
   116.00  0.82571E-01
   117.00  0.82242E-01
   118.00  0.82000E-01
   119.00  0.81843E-01
   120.00  0.81771E-01
   121.00  0.81783E-01
   122.00  0.81879E-01
   123.00  0.82059E-01
   124.00  0.82323E-01
   125.00  0.82671E-01
   126.00  0.83104E-01
   127.00  0.83621E-01
   128.00  0.84223E-01
   129.00  0.84909E-01
   130.00  0.85681E-01
   131.00  0.86537E-01
   132.00  0.87478E-01
   133.00  0.88503E-01
   134.00  0.89612E-01
   135.00  0.90804E-01
   136.00  0.92076E-01
   137.00  0.93427E-01
   138.00  0.94854E-01
   139.00  0.96354E-01
   140.00  0.97922E-01
   141.00  0.99551E-01
   142.00  0.10124    
   143.00  0.10297    
   144.00  0.10474    
   145.00  0.10654    
   146.00  0.10836    
   147.00  0.11017    
   148.00  0.11197    
   149.00  0.11374    
   150.00  0.11545    
   151.00  0.11708    
   152.00  0.11862    
   153.00  0.12003    
   154.00  0.12130    
   155.00  0.12240    
   156.00  0.12332    
   157.00  0.12403    
   158.00  0.12452    
   159.00  0.12479    
   160.00  0.12486    
   161.00  0.12472    
   162.00  0.12442    
   163.00  0.12401    
   164.00  0.12353    
   165.00  0.12308    
   166.00  0.12272    
   167.00  0.12257    
   168.00  0.12270    
   169.00  0.12320    
   170.00  0.12414    
   171.00  0.12554    
   172.00  0.12739    
   173.00  0.12963    
   174.00  0.13215    
   175.00  0.13479    
   176.00  0.13736    
   177.00  0.13965    
   178.00  0.14145    
   179.00  0.14261    
   180.00  0.14301    
 |--------|------------|
0.420000     micron = Wavelength
 2.63450     = Extinction efficiency (Q)
 2.63450     = Scattering efficiency (Qs)
 0.00000     = Absorption efficiency (Qa)
 87.8695     = Lidar ratio
0.126655     micron^2 = <b> = Average surface area per particle
0.333673     microns^2 = Extinction cross section (C)
0.333673     microns^2 = Scattering cross section (Cs)
 0.00000     microns^2 = Absorption cross section (Ca)
 |----------------------------------------------------|
 | COMMENTAIRES:                                      |
 |----------------------------------------------------|
 |   -Cross section / <b> should = efficiency         |
 |    is independant of the normalisation of dN/dx    |
 |   -The integral of the phase fct / 4 pi over all   |
 |    directions (solid angle) = 1.                   |
 |   -The volume coefficient (k) is equal to C * N    |
 |      = cross section * Number density              |
 |      typical units: [um^2]*[particles/cm^3] =      |
 |      [10^-3 km-1]                                  |
 |      N = M/(d*4/3*pi*r^3) where d is the density   |
 |      of particle, M is the mass per unit volume    |
 |      and 4/3*pi*r^3 is the average volume  of a    |
 |      particle.                                     |
 |      typical units:  M -> [ug/m^3], d -> [g/cm^3]  |
 |                      r -> [um]                     |
 |      Lidar ratio= 4 pi Qe / phase_fct(180)*Qs      |
 |----------------------------------------------------|
