 |--------|------------|
 | ANGLE  |  PHASE FCT |
 |--------|------------|
     0.00   87.782    
     1.00   85.897    
     2.00   80.602    
     3.00   72.835    
     4.00   63.760    
     5.00   54.428    
     6.00   45.599    
     7.00   37.716    
     8.00   30.965    
     9.00   25.360    
    10.00   20.812    
    11.00   17.180    
    12.00   14.312    
    13.00   12.062    
    14.00   10.301    
    15.00   8.9207    
    16.00   7.8320    
    17.00   6.9652    
    18.00   6.2660    
    19.00   5.6930    
    20.00   5.2151    
    21.00   4.8091    
    22.00   4.4577    
    23.00   4.1484    
    24.00   3.8721    
    25.00   3.6220    
    26.00   3.3934    
    27.00   3.1826    
    28.00   2.9871    
    29.00   2.8050    
    30.00   2.6347    
    31.00   2.4752    
    32.00   2.3256    
    33.00   2.1851    
    34.00   2.0532    
    35.00   1.9294    
    36.00   1.8130    
    37.00   1.7038    
    38.00   1.6013    
    39.00   1.5051    
    40.00   1.4149    
    41.00   1.3303    
    42.00   1.2511    
    43.00   1.1768    
    44.00   1.1072    
    45.00   1.0420    
    46.00  0.98090    
    47.00  0.92371    
    48.00  0.87016    
    49.00  0.82002    
    50.00  0.77307    
    51.00  0.72910    
    52.00  0.68792    
    53.00  0.64936    
    54.00  0.61324    
    55.00  0.57939    
    56.00  0.54768    
    57.00  0.51797    
    58.00  0.49011    
    59.00  0.46400    
    60.00  0.43952    
    61.00  0.41656    
    62.00  0.39502    
    63.00  0.37482    
    64.00  0.35586    
    65.00  0.33807    
    66.00  0.32137    
    67.00  0.30570    
    68.00  0.29098    
    69.00  0.27716    
    70.00  0.26418    
    71.00  0.25200    
    72.00  0.24055    
    73.00  0.22980    
    74.00  0.21971    
    75.00  0.21023    
    76.00  0.20133    
    77.00  0.19297    
    78.00  0.18513    
    79.00  0.17777    
    80.00  0.17086    
    81.00  0.16438    
    82.00  0.15830    
    83.00  0.15260    
    84.00  0.14726    
    85.00  0.14226    
    86.00  0.13758    
    87.00  0.13321    
    88.00  0.12912    
    89.00  0.12529    
    90.00  0.12173    
    91.00  0.11841    
    92.00  0.11531    
    93.00  0.11244    
    94.00  0.10977    
    95.00  0.10730    
    96.00  0.10502    
    97.00  0.10291    
    98.00  0.10098    
    99.00  0.99215E-01
   100.00  0.97606E-01
   101.00  0.96150E-01
   102.00  0.94841E-01
   103.00  0.93676E-01
   104.00  0.92651E-01
   105.00  0.91764E-01
   106.00  0.91012E-01
   107.00  0.90396E-01
   108.00  0.89915E-01
   109.00  0.89569E-01
   110.00  0.89359E-01
   111.00  0.89288E-01
   112.00  0.89359E-01
   113.00  0.89576E-01
   114.00  0.89943E-01
   115.00  0.90466E-01
   116.00  0.91151E-01
   117.00  0.92006E-01
   118.00  0.93038E-01
   119.00  0.94256E-01
   120.00  0.95670E-01
   121.00  0.97290E-01
   122.00  0.99125E-01
   123.00  0.10119    
   124.00  0.10348    
   125.00  0.10603    
   126.00  0.10884    
   127.00  0.11192    
   128.00  0.11527    
   129.00  0.11891    
   130.00  0.12285    
   131.00  0.12708    
   132.00  0.13161    
   133.00  0.13643    
   134.00  0.14153    
   135.00  0.14691    
   136.00  0.15253    
   137.00  0.15838    
   138.00  0.16442    
   139.00  0.17061    
   140.00  0.17689    
   141.00  0.18322    
   142.00  0.18952    
   143.00  0.19574    
   144.00  0.20179    
   145.00  0.20761    
   146.00  0.21313    
   147.00  0.21828    
   148.00  0.22302    
   149.00  0.22733    
   150.00  0.23119    
   151.00  0.23465    
   152.00  0.23778    
   153.00  0.24071    
   154.00  0.24361    
   155.00  0.24672    
   156.00  0.25033    
   157.00  0.25480    
   158.00  0.26050    
   159.00  0.26781    
   160.00  0.27708    
   161.00  0.28849    
   162.00  0.30203    
   163.00  0.31730    
   164.00  0.33342    
   165.00  0.34891    
   166.00  0.36166    
   167.00  0.36914    
   168.00  0.36875    
   169.00  0.35849    
   170.00  0.33789    
   171.00  0.30887    
   172.00  0.27623    
   173.00  0.24735    
   174.00  0.23079    
   175.00  0.23378    
   176.00  0.25918    
   177.00  0.30298    
   178.00  0.35353    
   179.00  0.39417    
   180.00  0.40978    
 |--------|------------|
0.500000     micron = Wavelength
 2.63147     = Extinction efficiency (Q)
 2.63147     = Scattering efficiency (Qs)
 0.00000     = Absorption efficiency (Qa)
 30.6664     = Lidar ratio
 1.56992     micron^2 = <b> = Average surface area per particle
 4.13120     microns^2 = Extinction cross section (C)
 4.13120     microns^2 = Scattering cross section (Cs)
 0.00000     microns^2 = Absorption cross section (Ca)
 |----------------------------------------------------|
 | COMMENTAIRES:                                      |
 |----------------------------------------------------|
 |   -Cross section / <b> should = efficiency         |
 |    is independant of the normalisation of dN/dx    |
 |   -The integral of the phase fct / 4 pi over all   |
 |    directions (solid angle) = 1.                   |
 |   -The volume coefficient (k) is equal to C * N    |
 |      = cross section * Number density              |
 |      typical units: [um^2]*[particles/cm^3] =      |
 |      [10^-3 km-1]                                  |
 |      N = M/(d*4/3*pi*r^3) where d is the density   |
 |      of particle, M is the mass per unit volume    |
 |      and 4/3*pi*r^3 is the average volume  of a    |
 |      particle.                                     |
 |      typical units:  M -> [ug/m^3], d -> [g/cm^3]  |
 |                      r -> [um]                     |
 |      Lidar ratio= 4 pi Qe / phase_fct(180)*Qs      |
 |----------------------------------------------------|
