 |--------|------------|
 | ANGLE  |  PHASE FCT |
 |--------|------------|
     0.00   21.016    
     1.00   20.960    
     2.00   20.791    
     3.00   20.516    
     4.00   20.139    
     5.00   19.669    
     6.00   19.117    
     7.00   18.495    
     8.00   17.813    
     9.00   17.084    
    10.00   16.321    
    11.00   15.533    
    12.00   14.732    
    13.00   13.928    
    14.00   13.128    
    15.00   12.340    
    16.00   11.569    
    17.00   10.822    
    18.00   10.102    
    19.00   9.4113    
    20.00   8.7531    
    21.00   8.1287    
    22.00   7.5386    
    23.00   6.9831    
    24.00   6.4621    
    25.00   5.9748    
    26.00   5.5203    
    27.00   5.0975    
    28.00   4.7051    
    29.00   4.3415    
    30.00   4.0052    
    31.00   3.6948    
    32.00   3.4085    
    33.00   3.1448    
    34.00   2.9022    
    35.00   2.6791    
    36.00   2.4742    
    37.00   2.2860    
    38.00   2.1133    
    39.00   1.9548    
    40.00   1.8095    
    41.00   1.6761    
    42.00   1.5538    
    43.00   1.4416    
    44.00   1.3387    
    45.00   1.2442    
    46.00   1.1575    
    47.00   1.0778    
    48.00   1.0046    
    49.00  0.93734    
    50.00  0.87544    
    51.00  0.81847    
    52.00  0.76600    
    53.00  0.71764    
    54.00  0.67304    
    55.00  0.63188    
    56.00  0.59385    
    57.00  0.55870    
    58.00  0.52618    
    59.00  0.49606    
    60.00  0.46816    
    61.00  0.44228    
    62.00  0.41826    
    63.00  0.39594    
    64.00  0.37520    
    65.00  0.35589    
    66.00  0.33791    
    67.00  0.32116    
    68.00  0.30553    
    69.00  0.29095    
    70.00  0.27732    
    71.00  0.26459    
    72.00  0.25268    
    73.00  0.24153    
    74.00  0.23108    
    75.00  0.22129    
    76.00  0.21211    
    77.00  0.20350    
    78.00  0.19542    
    79.00  0.18782    
    80.00  0.18068    
    81.00  0.17397    
    82.00  0.16766    
    83.00  0.16172    
    84.00  0.15614    
    85.00  0.15088    
    86.00  0.14592    
    87.00  0.14126    
    88.00  0.13686    
    89.00  0.13273    
    90.00  0.12883    
    91.00  0.12516    
    92.00  0.12170    
    93.00  0.11845    
    94.00  0.11539    
    95.00  0.11251    
    96.00  0.10980    
    97.00  0.10726    
    98.00  0.10487    
    99.00  0.10264    
   100.00  0.10054    
   101.00  0.98581E-01
   102.00  0.96751E-01
   103.00  0.95047E-01
   104.00  0.93463E-01
   105.00  0.91994E-01
   106.00  0.90637E-01
   107.00  0.89388E-01
   108.00  0.88244E-01
   109.00  0.87202E-01
   110.00  0.86258E-01
   111.00  0.85411E-01
   112.00  0.84658E-01
   113.00  0.83998E-01
   114.00  0.83428E-01
   115.00  0.82949E-01
   116.00  0.82557E-01
   117.00  0.82253E-01
   118.00  0.82036E-01
   119.00  0.81905E-01
   120.00  0.81859E-01
   121.00  0.81899E-01
   122.00  0.82025E-01
   123.00  0.82236E-01
   124.00  0.82533E-01
   125.00  0.82917E-01
   126.00  0.83386E-01
   127.00  0.83943E-01
   128.00  0.84587E-01
   129.00  0.85318E-01
   130.00  0.86138E-01
   131.00  0.87046E-01
   132.00  0.88042E-01
   133.00  0.89126E-01
   134.00  0.90298E-01
   135.00  0.91557E-01
   136.00  0.92902E-01
   137.00  0.94330E-01
   138.00  0.95839E-01
   139.00  0.97426E-01
   140.00  0.99086E-01
   141.00  0.10081    
   142.00  0.10260    
   143.00  0.10445    
   144.00  0.10633    
   145.00  0.10825    
   146.00  0.11018    
   147.00  0.11212    
   148.00  0.11405    
   149.00  0.11593    
   150.00  0.11777    
   151.00  0.11952    
   152.00  0.12116    
   153.00  0.12267    
   154.00  0.12402    
   155.00  0.12519    
   156.00  0.12614    
   157.00  0.12686    
   158.00  0.12734    
   159.00  0.12755    
   160.00  0.12752    
   161.00  0.12725    
   162.00  0.12677    
   163.00  0.12614    
   164.00  0.12542    
   165.00  0.12468    
   166.00  0.12404    
   167.00  0.12359    
   168.00  0.12344    
   169.00  0.12369    
   170.00  0.12441    
   171.00  0.12566    
   172.00  0.12743    
   173.00  0.12966    
   174.00  0.13223    
   175.00  0.13498    
   176.00  0.13768    
   177.00  0.14011    
   178.00  0.14204    
   179.00  0.14329    
   180.00  0.14372    
 |--------|------------|
0.410000     micron = Wavelength
 2.69050     = Extinction efficiency (Q)
 2.69050     = Scattering efficiency (Qs)
 0.00000     = Absorption efficiency (Qa)
 87.4388     = Lidar ratio
0.126656     micron^2 = <b> = Average surface area per particle
0.340766     microns^2 = Extinction cross section (C)
0.340766     microns^2 = Scattering cross section (Cs)
 0.00000     microns^2 = Absorption cross section (Ca)
 |----------------------------------------------------|
 | COMMENTAIRES:                                      |
 |----------------------------------------------------|
 |   -Cross section / <b> should = efficiency         |
 |    is independant of the normalisation of dN/dx    |
 |   -The integral of the phase fct / 4 pi over all   |
 |    directions (solid angle) = 1.                   |
 |   -The volume coefficient (k) is equal to C * N    |
 |      = cross section * Number density              |
 |      typical units: [um^2]*[particles/cm^3] =      |
 |      [10^-3 km-1]                                  |
 |      N = M/(d*4/3*pi*r^3) where d is the density   |
 |      of particle, M is the mass per unit volume    |
 |      and 4/3*pi*r^3 is the average volume  of a    |
 |      particle.                                     |
 |      typical units:  M -> [ug/m^3], d -> [g/cm^3]  |
 |                      r -> [um]                     |
 |      Lidar ratio= 4 pi Qe / phase_fct(180)*Qs      |
 |----------------------------------------------------|
