 |--------|------------|
 | ANGLE  |  PHASE FCT |
 |--------|------------|
     0.00   54.203    
     1.00   53.596    
     2.00   51.840    
     3.00   49.121    
     4.00   45.695    
     5.00   41.838    
     6.00   37.802    
     7.00   33.795    
     8.00   29.965    
     9.00   26.412    
    10.00   23.189    
    11.00   20.317    
    12.00   17.791    
    13.00   15.590    
    14.00   13.688    
    15.00   12.051    
    16.00   10.646    
    17.00   9.4413    
    18.00   8.4077    
    19.00   7.5191    
    20.00   6.7530    
    21.00   6.0897    
    22.00   5.5130    
    23.00   5.0091    
    24.00   4.5664    
    25.00   4.1754    
    26.00   3.8283    
    27.00   3.5186    
    28.00   3.2410    
    29.00   2.9910    
    30.00   2.7650    
    31.00   2.5600    
    32.00   2.3733    
    33.00   2.2029    
    34.00   2.0469    
    35.00   1.9039    
    36.00   1.7724    
    37.00   1.6514    
    38.00   1.5399    
    39.00   1.4370    
    40.00   1.3419    
    41.00   1.2540    
    42.00   1.1726    
    43.00   1.0972    
    44.00   1.0274    
    45.00  0.96256    
    46.00  0.90243    
    47.00  0.84660    
    48.00  0.79473    
    49.00  0.74653    
    50.00  0.70170    
    51.00  0.66000    
    52.00  0.62120    
    53.00  0.58506    
    54.00  0.55140    
    55.00  0.52003    
    56.00  0.49078    
    57.00  0.46350    
    58.00  0.43805    
    59.00  0.41430    
    60.00  0.39211    
    61.00  0.37139    
    62.00  0.35202    
    63.00  0.33392    
    64.00  0.31699    
    65.00  0.30115    
    66.00  0.28632    
    67.00  0.27245    
    68.00  0.25946    
    69.00  0.24729    
    70.00  0.23588    
    71.00  0.22520    
    72.00  0.21518    
    73.00  0.20579    
    74.00  0.19699    
    75.00  0.18873    
    76.00  0.18098    
    77.00  0.17372    
    78.00  0.16690    
    79.00  0.16051    
    80.00  0.15451    
    81.00  0.14889    
    82.00  0.14361    
    83.00  0.13866    
    84.00  0.13402    
    85.00  0.12967    
    86.00  0.12560    
    87.00  0.12179    
    88.00  0.11821    
    89.00  0.11487    
    90.00  0.11175    
    91.00  0.10884    
    92.00  0.10612    
    93.00  0.10358    
    94.00  0.10122    
    95.00  0.99035E-01
    96.00  0.97007E-01
    97.00  0.95133E-01
    98.00  0.93406E-01
    99.00  0.91821E-01
   100.00  0.90372E-01
   101.00  0.89055E-01
   102.00  0.87865E-01
   103.00  0.86799E-01
   104.00  0.85853E-01
   105.00  0.85026E-01
   106.00  0.84315E-01
   107.00  0.83717E-01
   108.00  0.83233E-01
   109.00  0.82861E-01
   110.00  0.82600E-01
   111.00  0.82451E-01
   112.00  0.82414E-01
   113.00  0.82490E-01
   114.00  0.82680E-01
   115.00  0.82985E-01
   116.00  0.83407E-01
   117.00  0.83948E-01
   118.00  0.84611E-01
   119.00  0.85398E-01
   120.00  0.86311E-01
   121.00  0.87354E-01
   122.00  0.88529E-01
   123.00  0.89839E-01
   124.00  0.91288E-01
   125.00  0.92877E-01
   126.00  0.94609E-01
   127.00  0.96487E-01
   128.00  0.98512E-01
   129.00  0.10068    
   130.00  0.10300    
   131.00  0.10547    
   132.00  0.10808    
   133.00  0.11084    
   134.00  0.11373    
   135.00  0.11675    
   136.00  0.11989    
   137.00  0.12315    
   138.00  0.12651    
   139.00  0.12996    
   140.00  0.13349    
   141.00  0.13708    
   142.00  0.14071    
   143.00  0.14438    
   144.00  0.14806    
   145.00  0.15175    
   146.00  0.15544    
   147.00  0.15912    
   148.00  0.16280    
   149.00  0.16648    
   150.00  0.17019    
   151.00  0.17396    
   152.00  0.17782    
   153.00  0.18183    
   154.00  0.18603    
   155.00  0.19049    
   156.00  0.19526    
   157.00  0.20036    
   158.00  0.20580    
   159.00  0.21151    
   160.00  0.21736    
   161.00  0.22309    
   162.00  0.22833    
   163.00  0.23256    
   164.00  0.23511    
   165.00  0.23523    
   166.00  0.23216    
   167.00  0.22527    
   168.00  0.21428    
   169.00  0.19950    
   170.00  0.18198    
   171.00  0.16361    
   172.00  0.14703    
   173.00  0.13516    
   174.00  0.13058    
   175.00  0.13469    
   176.00  0.14694    
   177.00  0.16457    
   178.00  0.18297    
   179.00  0.19686    
   180.00  0.20203    
 |--------|------------|
0.670000     micron = Wavelength
 2.98183     = Extinction efficiency (Q)
 2.98183     = Scattering efficiency (Qs)
 0.00000     = Absorption efficiency (Qa)
 62.2005     = Lidar ratio
 1.56998     micron^2 = <b> = Average surface area per particle
 4.68141     microns^2 = Extinction cross section (C)
 4.68141     microns^2 = Scattering cross section (Cs)
0.797407E-15 microns^2 = Absorption cross section (Ca)
 |----------------------------------------------------|
 | COMMENTAIRES:                                      |
 |----------------------------------------------------|
 |   -Cross section / <b> should = efficiency         |
 |    is independant of the normalisation of dN/dx    |
 |   -The integral of the phase fct / 4 pi over all   |
 |    directions (solid angle) = 1.                   |
 |   -The volume coefficient (k) is equal to C * N    |
 |      = cross section * Number density              |
 |      typical units: [um^2]*[particles/cm^3] =      |
 |      [10^-3 km-1]                                  |
 |      N = M/(d*4/3*pi*r^3) where d is the density   |
 |      of particle, M is the mass per unit volume    |
 |      and 4/3*pi*r^3 is the average volume  of a    |
 |      particle.                                     |
 |      typical units:  M -> [ug/m^3], d -> [g/cm^3]  |
 |                      r -> [um]                     |
 |      Lidar ratio= 4 pi Qe / phase_fct(180)*Qs      |
 |----------------------------------------------------|
