 |--------|------------|
 | ANGLE  |  PHASE FCT |
 |--------|------------|
     0.00   10.287    
     1.00   10.275    
     2.00   10.240    
     3.00   10.183    
     4.00   10.103    
     5.00   10.002    
     6.00   9.8797    
     7.00   9.7385    
     8.00   9.5790    
     9.00   9.4028    
    10.00   9.2112    
    11.00   9.0058    
    12.00   8.7882    
    13.00   8.5600    
    14.00   8.3228    
    15.00   8.0781    
    16.00   7.8276    
    17.00   7.5727    
    18.00   7.3147    
    19.00   7.0551    
    20.00   6.7951    
    21.00   6.5358    
    22.00   6.2782    
    23.00   6.0234    
    24.00   5.7721    
    25.00   5.5252    
    26.00   5.2832    
    27.00   5.0468    
    28.00   4.8165    
    29.00   4.5926    
    30.00   4.3754    
    31.00   4.1653    
    32.00   3.9623    
    33.00   3.7667    
    34.00   3.5784    
    35.00   3.3976    
    36.00   3.2241    
    37.00   3.0580    
    38.00   2.8991    
    39.00   2.7474    
    40.00   2.6026    
    41.00   2.4646    
    42.00   2.3333    
    43.00   2.2083    
    44.00   2.0897    
    45.00   1.9770    
    46.00   1.8701    
    47.00   1.7688    
    48.00   1.6729    
    49.00   1.5820    
    50.00   1.4961    
    51.00   1.4149    
    52.00   1.3381    
    53.00   1.2656    
    54.00   1.1972    
    55.00   1.1326    
    56.00   1.0716    
    57.00   1.0141    
    58.00  0.95995    
    59.00  0.90887    
    60.00  0.86074    
    61.00  0.81539    
    62.00  0.77267    
    63.00  0.73244    
    64.00  0.69455    
    65.00  0.65888    
    66.00  0.62529    
    67.00  0.59367    
    68.00  0.56391    
    69.00  0.53588    
    70.00  0.50950    
    71.00  0.48467    
    72.00  0.46129    
    73.00  0.43928    
    74.00  0.41856    
    75.00  0.39905    
    76.00  0.38069    
    77.00  0.36339    
    78.00  0.34710    
    79.00  0.33176    
    80.00  0.31731    
    81.00  0.30370    
    82.00  0.29088    
    83.00  0.27880    
    84.00  0.26741    
    85.00  0.25668    
    86.00  0.24657    
    87.00  0.23704    
    88.00  0.22806    
    89.00  0.21960    
    90.00  0.21162    
    91.00  0.20410    
    92.00  0.19701    
    93.00  0.19032    
    94.00  0.18402    
    95.00  0.17808    
    96.00  0.17248    
    97.00  0.16721    
    98.00  0.16224    
    99.00  0.15756    
   100.00  0.15315    
   101.00  0.14901    
   102.00  0.14510    
   103.00  0.14144    
   104.00  0.13799    
   105.00  0.13475    
   106.00  0.13171    
   107.00  0.12886    
   108.00  0.12619    
   109.00  0.12370    
   110.00  0.12137    
   111.00  0.11919    
   112.00  0.11717    
   113.00  0.11529    
   114.00  0.11355    
   115.00  0.11194    
   116.00  0.11046    
   117.00  0.10910    
   118.00  0.10786    
   119.00  0.10673    
   120.00  0.10571    
   121.00  0.10480    
   122.00  0.10399    
   123.00  0.10328    
   124.00  0.10266    
   125.00  0.10214    
   126.00  0.10172    
   127.00  0.10138    
   128.00  0.10112    
   129.00  0.10095    
   130.00  0.10086    
   131.00  0.10086    
   132.00  0.10093    
   133.00  0.10107    
   134.00  0.10129    
   135.00  0.10159    
   136.00  0.10196    
   137.00  0.10239    
   138.00  0.10290    
   139.00  0.10347    
   140.00  0.10411    
   141.00  0.10482    
   142.00  0.10558    
   143.00  0.10641    
   144.00  0.10730    
   145.00  0.10825    
   146.00  0.10926    
   147.00  0.11032    
   148.00  0.11144    
   149.00  0.11262    
   150.00  0.11384    
   151.00  0.11512    
   152.00  0.11645    
   153.00  0.11783    
   154.00  0.11925    
   155.00  0.12072    
   156.00  0.12223    
   157.00  0.12379    
   158.00  0.12538    
   159.00  0.12701    
   160.00  0.12867    
   161.00  0.13035    
   162.00  0.13206    
   163.00  0.13379    
   164.00  0.13553    
   165.00  0.13727    
   166.00  0.13901    
   167.00  0.14073    
   168.00  0.14242    
   169.00  0.14406    
   170.00  0.14565    
   171.00  0.14716    
   172.00  0.14858    
   173.00  0.14989    
   174.00  0.15108    
   175.00  0.15211    
   176.00  0.15299    
   177.00  0.15368    
   178.00  0.15419    
   179.00  0.15450    
   180.00  0.15460    
 |--------|------------|
0.760000     micron = Wavelength
 1.09980     = Extinction efficiency (Q)
 1.09980     = Scattering efficiency (Qs)
 0.00000     = Absorption efficiency (Qa)
 81.2830     = Lidar ratio
0.126656     micron^2 = <b> = Average surface area per particle
0.139296     microns^2 = Extinction cross section (C)
0.139296     microns^2 = Scattering cross section (Cs)
0.320632E-16 microns^2 = Absorption cross section (Ca)
 |----------------------------------------------------|
 | COMMENTAIRES:                                      |
 |----------------------------------------------------|
 |   -Cross section / <b> should = efficiency         |
 |    is independant of the normalisation of dN/dx    |
 |   -The integral of the phase fct / 4 pi over all   |
 |    directions (solid angle) = 1.                   |
 |   -The volume coefficient (k) is equal to C * N    |
 |      = cross section * Number density              |
 |      typical units: [um^2]*[particles/cm^3] =      |
 |      [10^-3 km-1]                                  |
 |      N = M/(d*4/3*pi*r^3) where d is the density   |
 |      of particle, M is the mass per unit volume    |
 |      and 4/3*pi*r^3 is the average volume  of a    |
 |      particle.                                     |
 |      typical units:  M -> [ug/m^3], d -> [g/cm^3]  |
 |                      r -> [um]                     |
 |      Lidar ratio= 4 pi Qe / phase_fct(180)*Qs      |
 |----------------------------------------------------|
