 |--------|------------|
 | ANGLE  |  PHASE FCT |
 |--------|------------|
     0.00   142.03    
     1.00   137.09    
     2.00   123.65    
     3.00   105.14    
     4.00   85.321    
     5.00   66.974    
     6.00   51.466    
     7.00   39.113    
     8.00   29.666    
     9.00   22.649    
    10.00   17.536    
    11.00   13.850    
    12.00   11.206    
    13.00   9.3061    
    14.00   7.9305    
    15.00   6.9201    
    16.00   6.1621    
    17.00   5.5779    
    18.00   5.1134    
    19.00   4.7325    
    20.00   4.4103    
    21.00   4.1300    
    22.00   3.8801    
    23.00   3.6535    
    24.00   3.4453    
    25.00   3.2520    
    26.00   3.0709    
    27.00   2.9007    
    28.00   2.7404    
    29.00   2.5889    
    30.00   2.4456    
    31.00   2.3099    
    32.00   2.1815    
    33.00   2.0601    
    34.00   1.9451    
    35.00   1.8364    
    36.00   1.7336    
    37.00   1.6365    
    38.00   1.5447    
    39.00   1.4580    
    40.00   1.3763    
    41.00   1.2992    
    42.00   1.2264    
    43.00   1.1578    
    44.00   1.0932    
    45.00   1.0323    
    46.00  0.97490    
    47.00  0.92084    
    48.00  0.86994    
    49.00  0.82205    
    50.00  0.77694    
    51.00  0.73447    
    52.00  0.69449    
    53.00  0.65688    
    54.00  0.62147    
    55.00  0.58813    
    56.00  0.55676    
    57.00  0.52725    
    58.00  0.49944    
    59.00  0.47327    
    60.00  0.44865    
    61.00  0.42548    
    62.00  0.40365    
    63.00  0.38309    
    64.00  0.36374    
    65.00  0.34553    
    66.00  0.32838    
    67.00  0.31223    
    68.00  0.29703    
    69.00  0.28271    
    70.00  0.26923    
    71.00  0.25654    
    72.00  0.24461    
    73.00  0.23336    
    74.00  0.22278    
    75.00  0.21283    
    76.00  0.20347    
    77.00  0.19467    
    78.00  0.18640    
    79.00  0.17862    
    80.00  0.17132    
    81.00  0.16447    
    82.00  0.15803    
    83.00  0.15200    
    84.00  0.14635    
    85.00  0.14106    
    86.00  0.13611    
    87.00  0.13148    
    88.00  0.12715    
    89.00  0.12312    
    90.00  0.11936    
    91.00  0.11585    
    92.00  0.11260    
    93.00  0.10958    
    94.00  0.10678    
    95.00  0.10419    
    96.00  0.10179    
    97.00  0.99590E-01
    98.00  0.97562E-01
    99.00  0.95705E-01
   100.00  0.94011E-01
   101.00  0.92471E-01
   102.00  0.91076E-01
   103.00  0.89820E-01
   104.00  0.88701E-01
   105.00  0.87715E-01
   106.00  0.86859E-01
   107.00  0.86131E-01
   108.00  0.85530E-01
   109.00  0.85051E-01
   110.00  0.84701E-01
   111.00  0.84486E-01
   112.00  0.84411E-01
   113.00  0.84475E-01
   114.00  0.84687E-01
   115.00  0.85058E-01
   116.00  0.85601E-01
   117.00  0.86329E-01
   118.00  0.87251E-01
   119.00  0.88384E-01
   120.00  0.89747E-01
   121.00  0.91362E-01
   122.00  0.93247E-01
   123.00  0.95424E-01
   124.00  0.97917E-01
   125.00  0.10075    
   126.00  0.10395    
   127.00  0.10755    
   128.00  0.11156    
   129.00  0.11602    
   130.00  0.12094    
   131.00  0.12635    
   132.00  0.13226    
   133.00  0.13868    
   134.00  0.14560    
   135.00  0.15304    
   136.00  0.16095    
   137.00  0.16931    
   138.00  0.17805    
   139.00  0.18712    
   140.00  0.19642    
   141.00  0.20583    
   142.00  0.21525    
   143.00  0.22451    
   144.00  0.23346    
   145.00  0.24194    
   146.00  0.24979    
   147.00  0.25683    
   148.00  0.26292    
   149.00  0.26796    
   150.00  0.27190    
   151.00  0.27469    
   152.00  0.27641    
   153.00  0.27721    
   154.00  0.27731    
   155.00  0.27702    
   156.00  0.27677    
   157.00  0.27713    
   158.00  0.27872    
   159.00  0.28231    
   160.00  0.28879    
   161.00  0.29900    
   162.00  0.31372    
   163.00  0.33348    
   164.00  0.35828    
   165.00  0.38719    
   166.00  0.41810    
   167.00  0.44759    
   168.00  0.47091    
   169.00  0.48282    
   170.00  0.47910    
   171.00  0.45844    
   172.00  0.42416    
   173.00  0.38516    
   174.00  0.35489    
   175.00  0.34803    
   176.00  0.37585    
   177.00  0.44024    
   178.00  0.52672    
   179.00  0.60327    
   180.00  0.63410    
 |--------|------------|
0.390000     micron = Wavelength
 2.41580     = Extinction efficiency (Q)
 2.41580     = Scattering efficiency (Qs)
 0.00000     = Absorption efficiency (Qa)
 19.8178     = Lidar ratio
 1.56925     micron^2 = <b> = Average surface area per particle
 3.79100     microns^2 = Extinction cross section (C)
 3.79100     microns^2 = Scattering cross section (Cs)
 0.00000     microns^2 = Absorption cross section (Ca)
 |----------------------------------------------------|
 | COMMENTAIRES:                                      |
 |----------------------------------------------------|
 |   -Cross section / <b> should = efficiency         |
 |    is independant of the normalisation of dN/dx    |
 |   -The integral of the phase fct / 4 pi over all   |
 |    directions (solid angle) = 1.                   |
 |   -The volume coefficient (k) is equal to C * N    |
 |      = cross section * Number density              |
 |      typical units: [um^2]*[particles/cm^3] =      |
 |      [10^-3 km-1]                                  |
 |      N = M/(d*4/3*pi*r^3) where d is the density   |
 |      of particle, M is the mass per unit volume    |
 |      and 4/3*pi*r^3 is the average volume  of a    |
 |      particle.                                     |
 |      typical units:  M -> [ug/m^3], d -> [g/cm^3]  |
 |                      r -> [um]                     |
 |      Lidar ratio= 4 pi Qe / phase_fct(180)*Qs      |
 |----------------------------------------------------|
