 |--------|------------|
 | ANGLE  |  PHASE FCT |
 |--------|------------|
     0.00   45.625    
     1.00   45.234    
     2.00   44.096    
     3.00   42.303    
     4.00   39.992    
     5.00   37.316    
     6.00   34.427    
     7.00   31.458    
     8.00   28.519    
     9.00   25.691    
    10.00   23.031    
    11.00   20.572    
    12.00   18.332    
    13.00   16.313    
    14.00   14.509    
    15.00   12.908    
    16.00   11.494    
    17.00   10.249    
    18.00   9.1566    
    19.00   8.1980    
    20.00   7.3573    
    21.00   6.6195    
    22.00   5.9712    
    23.00   5.4006    
    24.00   4.8972    
    25.00   4.4519    
    26.00   4.0571    
    27.00   3.7058    
    28.00   3.3925    
    29.00   3.1121    
    30.00   2.8604    
    31.00   2.6338    
    32.00   2.4293    
    33.00   2.2442    
    34.00   2.0763    
    35.00   1.9235    
    36.00   1.7842    
    37.00   1.6571    
    38.00   1.5407    
    39.00   1.4340    
    40.00   1.3360    
    41.00   1.2460    
    42.00   1.1631    
    43.00   1.0866    
    44.00   1.0161    
    45.00  0.95089    
    46.00  0.89062    
    47.00  0.83483    
    48.00  0.78316    
    49.00  0.73525    
    50.00  0.69079    
    51.00  0.64952    
    52.00  0.61117    
    53.00  0.57552    
    54.00  0.54236    
    55.00  0.51149    
    56.00  0.48275    
    57.00  0.45596    
    58.00  0.43099    
    59.00  0.40769    
    60.00  0.38595    
    61.00  0.36566    
    62.00  0.34670    
    63.00  0.32898    
    64.00  0.31242    
    65.00  0.29692    
    66.00  0.28243    
    67.00  0.26886    
    68.00  0.25616    
    69.00  0.24426    
    70.00  0.23311    
    71.00  0.22266    
    72.00  0.21287    
    73.00  0.20368    
    74.00  0.19506    
    75.00  0.18698    
    76.00  0.17940    
    77.00  0.17228    
    78.00  0.16559    
    79.00  0.15932    
    80.00  0.15343    
    81.00  0.14790    
    82.00  0.14271    
    83.00  0.13784    
    84.00  0.13327    
    85.00  0.12897    
    86.00  0.12494    
    87.00  0.12117    
    88.00  0.11762    
    89.00  0.11430    
    90.00  0.11119    
    91.00  0.10828    
    92.00  0.10556    
    93.00  0.10301    
    94.00  0.10064    
    95.00  0.98431E-01
    96.00  0.96374E-01
    97.00  0.94466E-01
    98.00  0.92699E-01
    99.00  0.91068E-01
   100.00  0.89566E-01
   101.00  0.88192E-01
   102.00  0.86938E-01
   103.00  0.85803E-01
   104.00  0.84783E-01
   105.00  0.83874E-01
   106.00  0.83075E-01
   107.00  0.82383E-01
   108.00  0.81797E-01
   109.00  0.81315E-01
   110.00  0.80937E-01
   111.00  0.80661E-01
   112.00  0.80488E-01
   113.00  0.80418E-01
   114.00  0.80450E-01
   115.00  0.80586E-01
   116.00  0.80826E-01
   117.00  0.81172E-01
   118.00  0.81624E-01
   119.00  0.82185E-01
   120.00  0.82856E-01
   121.00  0.83639E-01
   122.00  0.84536E-01
   123.00  0.85548E-01
   124.00  0.86679E-01
   125.00  0.87929E-01
   126.00  0.89302E-01
   127.00  0.90799E-01
   128.00  0.92421E-01
   129.00  0.94170E-01
   130.00  0.96047E-01
   131.00  0.98053E-01
   132.00  0.10019    
   133.00  0.10245    
   134.00  0.10484    
   135.00  0.10736    
   136.00  0.11000    
   137.00  0.11276    
   138.00  0.11563    
   139.00  0.11862    
   140.00  0.12172    
   141.00  0.12492    
   142.00  0.12821    
   143.00  0.13160    
   144.00  0.13508    
   145.00  0.13864    
   146.00  0.14228    
   147.00  0.14601    
   148.00  0.14982    
   149.00  0.15373    
   150.00  0.15773    
   151.00  0.16184    
   152.00  0.16607    
   153.00  0.17042    
   154.00  0.17488    
   155.00  0.17947    
   156.00  0.18413    
   157.00  0.18881    
   158.00  0.19343    
   159.00  0.19784    
   160.00  0.20182    
   161.00  0.20510    
   162.00  0.20735    
   163.00  0.20814    
   164.00  0.20703    
   165.00  0.20361    
   166.00  0.19755    
   167.00  0.18871    
   168.00  0.17728    
   169.00  0.16387    
   170.00  0.14953    
   171.00  0.13580    
   172.00  0.12445    
   173.00  0.11723    
   174.00  0.11543    
   175.00  0.11947    
   176.00  0.12853    
   177.00  0.14056    
   178.00  0.15258    
   179.00  0.16143    
   180.00  0.16468    
 |--------|------------|
0.580000     micron = Wavelength
 3.07945     = Extinction efficiency (Q)
 3.07945     = Scattering efficiency (Qs)
 0.00000     = Absorption efficiency (Qa)
 76.3081     = Lidar ratio
0.917850     micron^2 = <b> = Average surface area per particle
 2.82648     microns^2 = Extinction cross section (C)
 2.82648     microns^2 = Scattering cross section (Cs)
0.597566E-15 microns^2 = Absorption cross section (Ca)
 |----------------------------------------------------|
 | COMMENTAIRES:                                      |
 |----------------------------------------------------|
 |   -Cross section / <b> should = efficiency         |
 |    is independant of the normalisation of dN/dx    |
 |   -The integral of the phase fct / 4 pi over all   |
 |    directions (solid angle) = 1.                   |
 |   -The volume coefficient (k) is equal to C * N    |
 |      = cross section * Number density              |
 |      typical units: [um^2]*[particles/cm^3] =      |
 |      [10^-3 km-1]                                  |
 |      N = M/(d*4/3*pi*r^3) where d is the density   |
 |      of particle, M is the mass per unit volume    |
 |      and 4/3*pi*r^3 is the average volume  of a    |
 |      particle.                                     |
 |      typical units:  M -> [ug/m^3], d -> [g/cm^3]  |
 |                      r -> [um]                     |
 |      Lidar ratio= 4 pi Qe / phase_fct(180)*Qs      |
 |----------------------------------------------------|
