 |--------|------------|
 | ANGLE  |  PHASE FCT |
 |--------|------------|
     0.00   98.754    
     1.00   96.344    
     2.00   89.627    
     3.00   79.913    
     4.00   68.785    
     5.00   57.609    
     6.00   47.302    
     7.00   38.338    
     8.00   30.865    
     9.00   24.822    
    10.00   20.046    
    11.00   16.328    
    12.00   13.464    
    13.00   11.270    
    14.00   9.5910    
    15.00   8.3006    
    16.00   7.3006    
    17.00   6.5157    
    18.00   5.8890    
    19.00   5.3787    
    20.00   4.9538    
    21.00   4.5922    
    22.00   4.2778    
    23.00   3.9991    
    24.00   3.7482    
    25.00   3.5192    
    26.00   3.3081    
    27.00   3.1120    
    28.00   2.9287    
    29.00   2.7569    
    30.00   2.5954    
    31.00   2.4433    
    32.00   2.3000    
    33.00   2.1650    
    34.00   2.0377    
    35.00   1.9178    
    36.00   1.8049    
    37.00   1.6986    
    38.00   1.5985    
    39.00   1.5044    
    40.00   1.4160    
    41.00   1.3329    
    42.00   1.2549    
    43.00   1.1816    
    44.00   1.1128    
    45.00   1.0483    
    46.00  0.98775    
    47.00  0.93096    
    48.00  0.87769    
    49.00  0.82773    
    50.00  0.78089    
    51.00  0.73695    
    52.00  0.69575    
    53.00  0.65711    
    54.00  0.62087    
    55.00  0.58687    
    56.00  0.55498    
    57.00  0.52506    
    58.00  0.49699    
    59.00  0.47064    
    60.00  0.44591    
    61.00  0.42269    
    62.00  0.40089    
    63.00  0.38043    
    64.00  0.36120    
    65.00  0.34315    
    66.00  0.32619    
    67.00  0.31026    
    68.00  0.29529    
    69.00  0.28122    
    70.00  0.26800    
    71.00  0.25558    
    72.00  0.24391    
    73.00  0.23295    
    74.00  0.22264    
    75.00  0.21296    
    76.00  0.20387    
    77.00  0.19533    
    78.00  0.18731    
    79.00  0.17978    
    80.00  0.17272    
    81.00  0.16608    
    82.00  0.15987    
    83.00  0.15404    
    84.00  0.14858    
    85.00  0.14346    
    86.00  0.13867    
    87.00  0.13419    
    88.00  0.13001    
    89.00  0.12610    
    90.00  0.12246    
    91.00  0.11906    
    92.00  0.11590    
    93.00  0.11296    
    94.00  0.11024    
    95.00  0.10771    
    96.00  0.10538    
    97.00  0.10323    
    98.00  0.10126    
    99.00  0.99452E-01
   100.00  0.97806E-01
   101.00  0.96315E-01
   102.00  0.94974E-01
   103.00  0.93778E-01
   104.00  0.92723E-01
   105.00  0.91807E-01
   106.00  0.91029E-01
   107.00  0.90386E-01
   108.00  0.89879E-01
   109.00  0.89507E-01
   110.00  0.89275E-01
   111.00  0.89184E-01
   112.00  0.89236E-01
   113.00  0.89437E-01
   114.00  0.89793E-01
   115.00  0.90310E-01
   116.00  0.90996E-01
   117.00  0.91858E-01
   118.00  0.92908E-01
   119.00  0.94154E-01
   120.00  0.95609E-01
   121.00  0.97285E-01
   122.00  0.99193E-01
   123.00  0.10135    
   124.00  0.10377    
   125.00  0.10646    
   126.00  0.10944    
   127.00  0.11272    
   128.00  0.11632    
   129.00  0.12024    
   130.00  0.12449    
   131.00  0.12909    
   132.00  0.13403    
   133.00  0.13932    
   134.00  0.14493    
   135.00  0.15087    
   136.00  0.15711    
   137.00  0.16361    
   138.00  0.17035    
   139.00  0.17726    
   140.00  0.18430    
   141.00  0.19138    
   142.00  0.19844    
   143.00  0.20539    
   144.00  0.21214    
   145.00  0.21859    
   146.00  0.22466    
   147.00  0.23027    
   148.00  0.23534    
   149.00  0.23983    
   150.00  0.24373    
   151.00  0.24705    
   152.00  0.24988    
   153.00  0.25234    
   154.00  0.25463    
   155.00  0.25701    
   156.00  0.25984    
   157.00  0.26350    
   158.00  0.26849    
   159.00  0.27529    
   160.00  0.28440    
   161.00  0.29620    
   162.00  0.31082    
   163.00  0.32808    
   164.00  0.34719    
   165.00  0.36667    
   166.00  0.38425    
   167.00  0.39699    
   168.00  0.40164    
   169.00  0.39541    
   170.00  0.37702    
   171.00  0.34790    
   172.00  0.31293    
   173.00  0.28033    
   174.00  0.26024    
   175.00  0.26178    
   176.00  0.28946    
   177.00  0.33977    
   178.00  0.39951    
   179.00  0.44845    
   180.00  0.46742    
 |--------|------------|
0.470000     micron = Wavelength
 2.56460     = Extinction efficiency (Q)
 2.56460     = Scattering efficiency (Qs)
 0.00000     = Absorption efficiency (Qa)
 26.8847     = Lidar ratio
 1.56986     micron^2 = <b> = Average surface area per particle
 4.02607     microns^2 = Extinction cross section (C)
 4.02607     microns^2 = Scattering cross section (Cs)
0.156959E-14 microns^2 = Absorption cross section (Ca)
 |----------------------------------------------------|
 | COMMENTAIRES:                                      |
 |----------------------------------------------------|
 |   -Cross section / <b> should = efficiency         |
 |    is independant of the normalisation of dN/dx    |
 |   -The integral of the phase fct / 4 pi over all   |
 |    directions (solid angle) = 1.                   |
 |   -The volume coefficient (k) is equal to C * N    |
 |      = cross section * Number density              |
 |      typical units: [um^2]*[particles/cm^3] =      |
 |      [10^-3 km-1]                                  |
 |      N = M/(d*4/3*pi*r^3) where d is the density   |
 |      of particle, M is the mass per unit volume    |
 |      and 4/3*pi*r^3 is the average volume  of a    |
 |      particle.                                     |
 |      typical units:  M -> [ug/m^3], d -> [g/cm^3]  |
 |                      r -> [um]                     |
 |      Lidar ratio= 4 pi Qe / phase_fct(180)*Qs      |
 |----------------------------------------------------|
