 |--------|------------|
 | ANGLE  |  PHASE FCT |
 |--------|------------|
     0.00   50.234    
     1.00   49.710    
     2.00   48.194    
     3.00   45.834    
     4.00   42.840    
     5.00   39.440    
     6.00   35.850    
     7.00   32.249    
     8.00   28.774    
     9.00   25.517    
    10.00   22.534    
    11.00   19.848    
    12.00   17.465    
    13.00   15.371    
    14.00   13.546    
    15.00   11.964    
    16.00   10.598    
    17.00   9.4194    
    18.00   8.4038    
    19.00   7.5273    
    20.00   6.7693    
    21.00   6.1116    
    22.00   5.5389    
    23.00   5.0379    
    24.00   4.5976    
    25.00   4.2088    
    26.00   3.8635    
    27.00   3.5556    
    28.00   3.2796    
    29.00   3.0311    
    30.00   2.8065    
    31.00   2.6027    
    32.00   2.4171    
    33.00   2.2476    
    34.00   2.0923    
    35.00   1.9498    
    36.00   1.8186    
    37.00   1.6978    
    38.00   1.5862    
    39.00   1.4831    
    40.00   1.3876    
    41.00   1.2992    
    42.00   1.2172    
    43.00   1.1411    
    44.00   1.0704    
    45.00   1.0046    
    46.00  0.94354    
    47.00  0.88669    
    48.00  0.83376    
    49.00  0.78447    
    50.00  0.73854    
    51.00  0.69573    
    52.00  0.65581    
    53.00  0.61856    
    54.00  0.58380    
    55.00  0.55134    
    56.00  0.52103    
    57.00  0.49271    
    58.00  0.46624    
    59.00  0.44149    
    60.00  0.41834    
    61.00  0.39668    
    62.00  0.37641    
    63.00  0.35744    
    64.00  0.33967    
    65.00  0.32302    
    66.00  0.30742    
    67.00  0.29279    
    68.00  0.27908    
    69.00  0.26622    
    70.00  0.25416    
    71.00  0.24284    
    72.00  0.23222    
    73.00  0.22225    
    74.00  0.21289    
    75.00  0.20410    
    76.00  0.19584    
    77.00  0.18809    
    78.00  0.18080    
    79.00  0.17396    
    80.00  0.16753    
    81.00  0.16149    
    82.00  0.15581    
    83.00  0.15048    
    84.00  0.14548    
    85.00  0.14077    
    86.00  0.13636    
    87.00  0.13221    
    88.00  0.12832    
    89.00  0.12467    
    90.00  0.12125    
    91.00  0.11804    
    92.00  0.11504    
    93.00  0.11224    
    94.00  0.10962    
    95.00  0.10717    
    96.00  0.10490    
    97.00  0.10278    
    98.00  0.10082    
    99.00  0.99009E-01
   100.00  0.97338E-01
   101.00  0.95805E-01
   102.00  0.94406E-01
   103.00  0.93135E-01
   104.00  0.91991E-01
   105.00  0.90971E-01
   106.00  0.90071E-01
   107.00  0.89291E-01
   108.00  0.88628E-01
   109.00  0.88084E-01
   110.00  0.87655E-01
   111.00  0.87344E-01
   112.00  0.87149E-01
   113.00  0.87072E-01
   114.00  0.87114E-01
   115.00  0.87277E-01
   116.00  0.87563E-01
   117.00  0.87974E-01
   118.00  0.88512E-01
   119.00  0.89181E-01
   120.00  0.89984E-01
   121.00  0.90925E-01
   122.00  0.92006E-01
   123.00  0.93234E-01
   124.00  0.94610E-01
   125.00  0.96140E-01
   126.00  0.97828E-01
   127.00  0.99677E-01
   128.00  0.10169    
   129.00  0.10388    
   130.00  0.10623    
   131.00  0.10876    
   132.00  0.11147    
   133.00  0.11436    
   134.00  0.11742    
   135.00  0.12067    
   136.00  0.12408    
   137.00  0.12767    
   138.00  0.13143    
   139.00  0.13535    
   140.00  0.13943    
   141.00  0.14365    
   142.00  0.14801    
   143.00  0.15250    
   144.00  0.15711    
   145.00  0.16184    
   146.00  0.16667    
   147.00  0.17161    
   148.00  0.17666    
   149.00  0.18182    
   150.00  0.18711    
   151.00  0.19253    
   152.00  0.19812    
   153.00  0.20389    
   154.00  0.20987    
   155.00  0.21606    
   156.00  0.22248    
   157.00  0.22906    
   158.00  0.23575    
   159.00  0.24238    
   160.00  0.24870    
   161.00  0.25436    
   162.00  0.25889    
   163.00  0.26167    
   164.00  0.26204    
   165.00  0.25928    
   166.00  0.25277    
   167.00  0.24215    
   168.00  0.22750    
   169.00  0.20950    
   170.00  0.18960    
   171.00  0.16996    
   172.00  0.15328    
   173.00  0.14232    
   174.00  0.13925    
   175.00  0.14496    
   176.00  0.15847    
   177.00  0.17676    
   178.00  0.19528    
   179.00  0.20904    
   180.00  0.21412    
 |--------|------------|
0.440000     micron = Wavelength
 2.99331     = Extinction efficiency (Q)
 2.99331     = Scattering efficiency (Qs)
 0.00000     = Absorption efficiency (Qa)
 58.6877     = Lidar ratio
0.625715     micron^2 = <b> = Average surface area per particle
 1.87296     microns^2 = Extinction cross section (C)
 1.87296     microns^2 = Scattering cross section (Cs)
 0.00000     microns^2 = Absorption cross section (Ca)
 |----------------------------------------------------|
 | COMMENTAIRES:                                      |
 |----------------------------------------------------|
 |   -Cross section / <b> should = efficiency         |
 |    is independant of the normalisation of dN/dx    |
 |   -The integral of the phase fct / 4 pi over all   |
 |    directions (solid angle) = 1.                   |
 |   -The volume coefficient (k) is equal to C * N    |
 |      = cross section * Number density              |
 |      typical units: [um^2]*[particles/cm^3] =      |
 |      [10^-3 km-1]                                  |
 |      N = M/(d*4/3*pi*r^3) where d is the density   |
 |      of particle, M is the mass per unit volume    |
 |      and 4/3*pi*r^3 is the average volume  of a    |
 |      particle.                                     |
 |      typical units:  M -> [ug/m^3], d -> [g/cm^3]  |
 |                      r -> [um]                     |
 |      Lidar ratio= 4 pi Qe / phase_fct(180)*Qs      |
 |----------------------------------------------------|
