 |--------|------------|
 | ANGLE  |  PHASE FCT |
 |--------|------------|
     0.00   65.634    
     1.00   64.653    
     2.00   61.850    
     3.00   57.597    
     4.00   52.393    
     5.00   46.736    
     6.00   41.048    
     7.00   35.633    
     8.00   30.681    
     9.00   26.287    
    10.00   22.476    
    11.00   19.228    
    12.00   16.493    
    13.00   14.210    
    14.00   12.314    
    15.00   10.743    
    16.00   9.4414    
    17.00   8.3594    
    18.00   7.4557    
    19.00   6.6957    
    20.00   6.0515    
    21.00   5.5003    
    22.00   5.0243    
    23.00   4.6091    
    24.00   4.2435    
    25.00   3.9187    
    26.00   3.6278    
    27.00   3.3654    
    28.00   3.1272    
    29.00   2.9098    
    30.00   2.7105    
    31.00   2.5272    
    32.00   2.3582    
    33.00   2.2018    
    34.00   2.0570    
    35.00   1.9227    
    36.00   1.7980    
    37.00   1.6821    
    38.00   1.5743    
    39.00   1.4740    
    40.00   1.3807    
    41.00   1.2938    
    42.00   1.2129    
    43.00   1.1375    
    44.00   1.0673    
    45.00   1.0019    
    46.00  0.94091    
    47.00  0.88408    
    48.00  0.83110    
    49.00  0.78170    
    50.00  0.73562    
    51.00  0.69264    
    52.00  0.65253    
    53.00  0.61509    
    54.00  0.58014    
    55.00  0.54750    
    56.00  0.51702    
    57.00  0.48853    
    58.00  0.46190    
    59.00  0.43700    
    60.00  0.41371    
    61.00  0.39193    
    62.00  0.37154    
    63.00  0.35246    
    64.00  0.33459    
    65.00  0.31786    
    66.00  0.30218    
    67.00  0.28749    
    68.00  0.27372    
    69.00  0.26082    
    70.00  0.24872    
    71.00  0.23737    
    72.00  0.22672    
    73.00  0.21674    
    74.00  0.20737    
    75.00  0.19858    
    76.00  0.19034    
    77.00  0.18260    
    78.00  0.17535    
    79.00  0.16854    
    80.00  0.16215    
    81.00  0.15616    
    82.00  0.15055    
    83.00  0.14528    
    84.00  0.14035    
    85.00  0.13573    
    86.00  0.13140    
    87.00  0.12735    
    88.00  0.12356    
    89.00  0.12002    
    90.00  0.11672    
    91.00  0.11363    
    92.00  0.11076    
    93.00  0.10809    
    94.00  0.10561    
    95.00  0.10330    
    96.00  0.10118    
    97.00  0.99214E-01
    98.00  0.97411E-01
    99.00  0.95759E-01
   100.00  0.94254E-01
   101.00  0.92892E-01
   102.00  0.91667E-01
   103.00  0.90575E-01
   104.00  0.89615E-01
   105.00  0.88783E-01
   106.00  0.88077E-01
   107.00  0.87497E-01
   108.00  0.87040E-01
   109.00  0.86708E-01
   110.00  0.86500E-01
   111.00  0.86418E-01
   112.00  0.86462E-01
   113.00  0.86635E-01
   114.00  0.86939E-01
   115.00  0.87377E-01
   116.00  0.87953E-01
   117.00  0.88670E-01
   118.00  0.89532E-01
   119.00  0.90545E-01
   120.00  0.91714E-01
   121.00  0.93042E-01
   122.00  0.94537E-01
   123.00  0.96203E-01
   124.00  0.98044E-01
   125.00  0.10007    
   126.00  0.10228    
   127.00  0.10468    
   128.00  0.10727    
   129.00  0.11006    
   130.00  0.11305    
   131.00  0.11624    
   132.00  0.11962    
   133.00  0.12319    
   134.00  0.12694    
   135.00  0.13086    
   136.00  0.13495    
   137.00  0.13918    
   138.00  0.14353    
   139.00  0.14798    
   140.00  0.15250    
   141.00  0.15706    
   142.00  0.16164    
   143.00  0.16619    
   144.00  0.17069    
   145.00  0.17511    
   146.00  0.17942    
   147.00  0.18360    
   148.00  0.18764    
   149.00  0.19154    
   150.00  0.19533    
   151.00  0.19905    
   152.00  0.20276    
   153.00  0.20655    
   154.00  0.21053    
   155.00  0.21485    
   156.00  0.21964    
   157.00  0.22507    
   158.00  0.23127    
   159.00  0.23832    
   160.00  0.24624    
   161.00  0.25487    
   162.00  0.26389    
   163.00  0.27271    
   164.00  0.28045    
   165.00  0.28598    
   166.00  0.28793    
   167.00  0.28497    
   168.00  0.27602    
   169.00  0.26074    
   170.00  0.23992    
   171.00  0.21582    
   172.00  0.19214    
   173.00  0.17362    
   174.00  0.16495    
   175.00  0.16932    
   176.00  0.18695    
   177.00  0.21418    
   178.00  0.24373    
   179.00  0.26659    
   180.00  0.27520    
 |--------|------------|
0.590000     micron = Wavelength
 2.83457     = Extinction efficiency (Q)
 2.83457     = Scattering efficiency (Qs)
 0.00000     = Absorption efficiency (Qa)
 45.6622     = Lidar ratio
 1.56998     micron^2 = <b> = Average surface area per particle
 4.45021     microns^2 = Extinction cross section (C)
 4.45021     microns^2 = Scattering cross section (Cs)
0.618350E-15 microns^2 = Absorption cross section (Ca)
 |----------------------------------------------------|
 | COMMENTAIRES:                                      |
 |----------------------------------------------------|
 |   -Cross section / <b> should = efficiency         |
 |    is independant of the normalisation of dN/dx    |
 |   -The integral of the phase fct / 4 pi over all   |
 |    directions (solid angle) = 1.                   |
 |   -The volume coefficient (k) is equal to C * N    |
 |      = cross section * Number density              |
 |      typical units: [um^2]*[particles/cm^3] =      |
 |      [10^-3 km-1]                                  |
 |      N = M/(d*4/3*pi*r^3) where d is the density   |
 |      of particle, M is the mass per unit volume    |
 |      and 4/3*pi*r^3 is the average volume  of a    |
 |      particle.                                     |
 |      typical units:  M -> [ug/m^3], d -> [g/cm^3]  |
 |                      r -> [um]                     |
 |      Lidar ratio= 4 pi Qe / phase_fct(180)*Qs      |
 |----------------------------------------------------|
