 |--------|------------|
 | ANGLE  |  PHASE FCT |
 |--------|------------|
     0.00   38.363    
     1.00   38.116    
     2.00   37.390    
     3.00   36.232    
     4.00   34.709    
     5.00   32.900    
     6.00   30.891    
     7.00   28.763    
     8.00   26.586    
     9.00   24.421    
    10.00   22.313    
    11.00   20.299    
    12.00   18.402    
    13.00   16.636    
    14.00   15.009    
    15.00   13.520    
    16.00   12.169    
    17.00   10.948    
    18.00   9.8491    
    19.00   8.8640    
    20.00   7.9829    
    21.00   7.1963    
    22.00   6.4947    
    23.00   5.8696    
    24.00   5.3125    
    25.00   4.8161    
    26.00   4.3734    
    27.00   3.9783    
    28.00   3.6253    
    29.00   3.3095    
    30.00   3.0265    
    31.00   2.7726    
    32.00   2.5443    
    33.00   2.3387    
    34.00   2.1532    
    35.00   1.9855    
    36.00   1.8337    
    37.00   1.6959    
    38.00   1.5707    
    39.00   1.4567    
    40.00   1.3527    
    41.00   1.2577    
    42.00   1.1708    
    43.00   1.0911    
    44.00   1.0180    
    45.00  0.95081    
    46.00  0.88898    
    47.00  0.83201    
    48.00  0.77945    
    49.00  0.73091    
    50.00  0.68604    
    51.00  0.64450    
    52.00  0.60602    
    53.00  0.57035    
    54.00  0.53724    
    55.00  0.50648    
    56.00  0.47790    
    57.00  0.45130    
    58.00  0.42655    
    59.00  0.40348    
    60.00  0.38199    
    61.00  0.36193    
    62.00  0.34322    
    63.00  0.32574    
    64.00  0.30941    
    65.00  0.29414    
    66.00  0.27986    
    67.00  0.26650    
    68.00  0.25400    
    69.00  0.24228    
    70.00  0.23130    
    71.00  0.22101    
    72.00  0.21136    
    73.00  0.20231    
    74.00  0.19382    
    75.00  0.18585    
    76.00  0.17837    
    77.00  0.17134    
    78.00  0.16474    
    79.00  0.15854    
    80.00  0.15271    
    81.00  0.14724    
    82.00  0.14209    
    83.00  0.13725    
    84.00  0.13271    
    85.00  0.12844    
    86.00  0.12442    
    87.00  0.12065    
    88.00  0.11711    
    89.00  0.11378    
    90.00  0.11066    
    91.00  0.10774    
    92.00  0.10499    
    93.00  0.10242    
    94.00  0.10002    
    95.00  0.97770E-01
    96.00  0.95673E-01
    97.00  0.93719E-01
    98.00  0.91902E-01
    99.00  0.90216E-01
   100.00  0.88656E-01
   101.00  0.87217E-01
   102.00  0.85895E-01
   103.00  0.84687E-01
   104.00  0.83587E-01
   105.00  0.82595E-01
   106.00  0.81706E-01
   107.00  0.80918E-01
   108.00  0.80230E-01
   109.00  0.79640E-01
   110.00  0.79146E-01
   111.00  0.78747E-01
   112.00  0.78442E-01
   113.00  0.78231E-01
   114.00  0.78114E-01
   115.00  0.78090E-01
   116.00  0.78159E-01
   117.00  0.78323E-01
   118.00  0.78581E-01
   119.00  0.78935E-01
   120.00  0.79386E-01
   121.00  0.79934E-01
   122.00  0.80581E-01
   123.00  0.81329E-01
   124.00  0.82180E-01
   125.00  0.83134E-01
   126.00  0.84194E-01
   127.00  0.85362E-01
   128.00  0.86639E-01
   129.00  0.88027E-01
   130.00  0.89529E-01
   131.00  0.91146E-01
   132.00  0.92879E-01
   133.00  0.94730E-01
   134.00  0.96701E-01
   135.00  0.98792E-01
   136.00  0.10101    
   137.00  0.10334    
   138.00  0.10580    
   139.00  0.10838    
   140.00  0.11108    
   141.00  0.11391    
   142.00  0.11686    
   143.00  0.11993    
   144.00  0.12312    
   145.00  0.12644    
   146.00  0.12987    
   147.00  0.13341    
   148.00  0.13707    
   149.00  0.14083    
   150.00  0.14469    
   151.00  0.14862    
   152.00  0.15263    
   153.00  0.15666    
   154.00  0.16069    
   155.00  0.16465    
   156.00  0.16847    
   157.00  0.17205    
   158.00  0.17527    
   159.00  0.17795    
   160.00  0.17992    
   161.00  0.18096    
   162.00  0.18082    
   163.00  0.17928    
   164.00  0.17613    
   165.00  0.17123    
   166.00  0.16458    
   167.00  0.15632    
   168.00  0.14682    
   169.00  0.13668    
   170.00  0.12675    
   171.00  0.11802    
   172.00  0.11150    
   173.00  0.10806    
   174.00  0.10818    
   175.00  0.11178    
   176.00  0.11811    
   177.00  0.12582    
   178.00  0.13318    
   179.00  0.13845    
   180.00  0.14036    
 |--------|------------|
0.550000     micron = Wavelength
 3.12987     = Extinction efficiency (Q)
 3.12987     = Scattering efficiency (Qs)
 0.00000     = Absorption efficiency (Qa)
 89.5268     = Lidar ratio
0.625717     micron^2 = <b> = Average surface area per particle
 1.95841     microns^2 = Extinction cross section (C)
 1.95841     microns^2 = Scattering cross section (Cs)
0.268674E-15 microns^2 = Absorption cross section (Ca)
 |----------------------------------------------------|
 | COMMENTAIRES:                                      |
 |----------------------------------------------------|
 |   -Cross section / <b> should = efficiency         |
 |    is independant of the normalisation of dN/dx    |
 |   -The integral of the phase fct / 4 pi over all   |
 |    directions (solid angle) = 1.                   |
 |   -The volume coefficient (k) is equal to C * N    |
 |      = cross section * Number density              |
 |      typical units: [um^2]*[particles/cm^3] =      |
 |      [10^-3 km-1]                                  |
 |      N = M/(d*4/3*pi*r^3) where d is the density   |
 |      of particle, M is the mass per unit volume    |
 |      and 4/3*pi*r^3 is the average volume  of a    |
 |      particle.                                     |
 |      typical units:  M -> [ug/m^3], d -> [g/cm^3]  |
 |                      r -> [um]                     |
 |      Lidar ratio= 4 pi Qe / phase_fct(180)*Qs      |
 |----------------------------------------------------|
