 |--------|------------|
 | ANGLE  |  PHASE FCT |
 |--------|------------|
     0.00   29.798    
     1.00   29.674    
     2.00   29.306    
     3.00   28.709    
     4.00   27.906    
     5.00   26.924    
     6.00   25.795    
     7.00   24.552    
     8.00   23.229    
     9.00   21.856    
    10.00   20.461    
    11.00   19.069    
    12.00   17.698    
    13.00   16.367    
    14.00   15.088    
    15.00   13.870    
    16.00   12.719    
    17.00   11.640    
    18.00   10.633    
    19.00   9.6998    
    20.00   8.8382    
    21.00   8.0461    
    22.00   7.3204    
    23.00   6.6575    
    24.00   6.0535    
    25.00   5.5044    
    26.00   5.0061    
    27.00   4.5546    
    28.00   4.1459    
    29.00   3.7763    
    30.00   3.4424    
    31.00   3.1407    
    32.00   2.8683    
    33.00   2.6222    
    34.00   2.4000    
    35.00   2.1992    
    36.00   2.0178    
    37.00   1.8536    
    38.00   1.7051    
    39.00   1.5705    
    40.00   1.4485    
    41.00   1.3378    
    42.00   1.2372    
    43.00   1.1457    
    44.00   1.0624    
    45.00  0.98651    
    46.00  0.91721    
    47.00  0.85389    
    48.00  0.79595    
    49.00  0.74288    
    50.00  0.69419    
    51.00  0.64949    
    52.00  0.60838    
    53.00  0.57055    
    54.00  0.53567    
    55.00  0.50349    
    56.00  0.47377    
    57.00  0.44628    
    58.00  0.42084    
    59.00  0.39726    
    60.00  0.37538    
    61.00  0.35507    
    62.00  0.33619    
    63.00  0.31863    
    64.00  0.30228    
    65.00  0.28704    
    66.00  0.27284    
    67.00  0.25958    
    68.00  0.24719    
    69.00  0.23562    
    70.00  0.22480    
    71.00  0.21467    
    72.00  0.20518    
    73.00  0.19630    
    74.00  0.18797    
    75.00  0.18016    
    76.00  0.17283    
    77.00  0.16594    
    78.00  0.15948    
    79.00  0.15341    
    80.00  0.14771    
    81.00  0.14235    
    82.00  0.13731    
    83.00  0.13257    
    84.00  0.12811    
    85.00  0.12391    
    86.00  0.11997    
    87.00  0.11626    
    88.00  0.11277    
    89.00  0.10949    
    90.00  0.10640    
    91.00  0.10350    
    92.00  0.10077    
    93.00  0.98215E-01
    94.00  0.95813E-01
    95.00  0.93561E-01
    96.00  0.91450E-01
    97.00  0.89476E-01
    98.00  0.87630E-01
    99.00  0.85907E-01
   100.00  0.84303E-01
   101.00  0.82811E-01
   102.00  0.81428E-01
   103.00  0.80150E-01
   104.00  0.78972E-01
   105.00  0.77891E-01
   106.00  0.76904E-01
   107.00  0.76008E-01
   108.00  0.75202E-01
   109.00  0.74482E-01
   110.00  0.73846E-01
   111.00  0.73293E-01
   112.00  0.72821E-01
   113.00  0.72430E-01
   114.00  0.72117E-01
   115.00  0.71882E-01
   116.00  0.71725E-01
   117.00  0.71645E-01
   118.00  0.71642E-01
   119.00  0.71715E-01
   120.00  0.71865E-01
   121.00  0.72092E-01
   122.00  0.72396E-01
   123.00  0.72778E-01
   124.00  0.73239E-01
   125.00  0.73779E-01
   126.00  0.74399E-01
   127.00  0.75100E-01
   128.00  0.75884E-01
   129.00  0.76751E-01
   130.00  0.77702E-01
   131.00  0.78738E-01
   132.00  0.79861E-01
   133.00  0.81072E-01
   134.00  0.82371E-01
   135.00  0.83760E-01
   136.00  0.85239E-01
   137.00  0.86808E-01
   138.00  0.88468E-01
   139.00  0.90217E-01
   140.00  0.92056E-01
   141.00  0.93982E-01
   142.00  0.95992E-01
   143.00  0.98084E-01
   144.00  0.10025    
   145.00  0.10249    
   146.00  0.10479    
   147.00  0.10714    
   148.00  0.10953    
   149.00  0.11193    
   150.00  0.11434    
   151.00  0.11672    
   152.00  0.11904    
   153.00  0.12127    
   154.00  0.12336    
   155.00  0.12527    
   156.00  0.12693    
   157.00  0.12829    
   158.00  0.12928    
   159.00  0.12982    
   160.00  0.12986    
   161.00  0.12933    
   162.00  0.12819    
   163.00  0.12641    
   164.00  0.12401    
   165.00  0.12106    
   166.00  0.11765    
   167.00  0.11396    
   168.00  0.11024    
   169.00  0.10675    
   170.00  0.10382    
   171.00  0.10174    
   172.00  0.10075    
   173.00  0.10101    
   174.00  0.10250    
   175.00  0.10501    
   176.00  0.10819    
   177.00  0.11153    
   178.00  0.11446    
   179.00  0.11646    
   180.00  0.11717    
 |--------|------------|
0.700000     micron = Wavelength
 2.96512     = Extinction efficiency (Q)
 2.96512     = Scattering efficiency (Qs)
 0.00000     = Absorption efficiency (Qa)
 107.251     = Lidar ratio
0.625715     micron^2 = <b> = Average surface area per particle
 1.85532     microns^2 = Extinction cross section (C)
 1.85532     microns^2 = Scattering cross section (Cs)
 0.00000     microns^2 = Absorption cross section (Ca)
 |----------------------------------------------------|
 | COMMENTAIRES:                                      |
 |----------------------------------------------------|
 |   -Cross section / <b> should = efficiency         |
 |    is independant of the normalisation of dN/dx    |
 |   -The integral of the phase fct / 4 pi over all   |
 |    directions (solid angle) = 1.                   |
 |   -The volume coefficient (k) is equal to C * N    |
 |      = cross section * Number density              |
 |      typical units: [um^2]*[particles/cm^3] =      |
 |      [10^-3 km-1]                                  |
 |      N = M/(d*4/3*pi*r^3) where d is the density   |
 |      of particle, M is the mass per unit volume    |
 |      and 4/3*pi*r^3 is the average volume  of a    |
 |      particle.                                     |
 |      typical units:  M -> [ug/m^3], d -> [g/cm^3]  |
 |                      r -> [um]                     |
 |      Lidar ratio= 4 pi Qe / phase_fct(180)*Qs      |
 |----------------------------------------------------|
