 |--------|------------|
 | ANGLE  |  PHASE FCT |
 |--------|------------|
     0.00   51.049    
     1.00   50.483    
     2.00   48.846    
     3.00   46.307    
     4.00   43.102    
     5.00   39.485    
     6.00   35.694    
     7.00   31.922    
     8.00   28.311    
     9.00   24.957    
    10.00   21.913    
    11.00   19.198    
    12.00   16.811    
    13.00   14.735    
    14.00   12.941    
    15.00   11.401    
    16.00   10.083    
    17.00   8.9567    
    18.00   7.9932    
    19.00   7.1680    
    20.00   6.4589    
    21.00   5.8471    
    22.00   5.3166    
    23.00   4.8539    
    24.00   4.4481    
    25.00   4.0898    
    26.00   3.7716    
    27.00   3.4872    
    28.00   3.2317    
    29.00   3.0009    
    30.00   2.7913    
    31.00   2.6003    
    32.00   2.4255    
    33.00   2.2649    
    34.00   2.1171    
    35.00   1.9806    
    36.00   1.8543    
    37.00   1.7373    
    38.00   1.6287    
    39.00   1.5278    
    40.00   1.4340    
    41.00   1.3466    
    42.00   1.2652    
    43.00   1.1893    
    44.00   1.1185    
    45.00   1.0524    
    46.00  0.99070    
    47.00  0.93309    
    48.00  0.87928    
    49.00  0.82899    
    50.00  0.78197    
    51.00  0.73801    
    52.00  0.69689    
    53.00  0.65842    
    54.00  0.62242    
    55.00  0.58873    
    56.00  0.55718    
    57.00  0.52763    
    58.00  0.49995    
    59.00  0.47402    
    60.00  0.44971    
    61.00  0.42692    
    62.00  0.40556    
    63.00  0.38552    
    64.00  0.36672    
    65.00  0.34908    
    66.00  0.33252    
    67.00  0.31698    
    68.00  0.30238    
    69.00  0.28867    
    70.00  0.27579    
    71.00  0.26369    
    72.00  0.25231    
    73.00  0.24162    
    74.00  0.23157    
    75.00  0.22212    
    76.00  0.21323    
    77.00  0.20487    
    78.00  0.19701    
    79.00  0.18961    
    80.00  0.18265    
    81.00  0.17610    
    82.00  0.16994    
    83.00  0.16415    
    84.00  0.15869    
    85.00  0.15356    
    86.00  0.14873    
    87.00  0.14419    
    88.00  0.13992    
    89.00  0.13591    
    90.00  0.13214    
    91.00  0.12860    
    92.00  0.12527    
    93.00  0.12216    
    94.00  0.11924    
    95.00  0.11651    
    96.00  0.11395    
    97.00  0.11157    
    98.00  0.10935    
    99.00  0.10729    
   100.00  0.10538    
   101.00  0.10362    
   102.00  0.10200    
   103.00  0.10052    
   104.00  0.99175E-01
   105.00  0.97962E-01
   106.00  0.96877E-01
   107.00  0.95922E-01
   108.00  0.95093E-01
   109.00  0.94390E-01
   110.00  0.93813E-01
   111.00  0.93363E-01
   112.00  0.93040E-01
   113.00  0.92845E-01
   114.00  0.92779E-01
   115.00  0.92847E-01
   116.00  0.93049E-01
   117.00  0.93389E-01
   118.00  0.93871E-01
   119.00  0.94498E-01
   120.00  0.95276E-01
   121.00  0.96208E-01
   122.00  0.97300E-01
   123.00  0.98558E-01
   124.00  0.99989E-01
   125.00  0.10160    
   126.00  0.10339    
   127.00  0.10537    
   128.00  0.10755    
   129.00  0.10993    
   130.00  0.11253    
   131.00  0.11534    
   132.00  0.11837    
   133.00  0.12163    
   134.00  0.12512    
   135.00  0.12885    
   136.00  0.13281    
   137.00  0.13702    
   138.00  0.14146    
   139.00  0.14614    
   140.00  0.15106    
   141.00  0.15620    
   142.00  0.16158    
   143.00  0.16717    
   144.00  0.17298    
   145.00  0.17900    
   146.00  0.18522    
   147.00  0.19165    
   148.00  0.19829    
   149.00  0.20514    
   150.00  0.21220    
   151.00  0.21950    
   152.00  0.22705    
   153.00  0.23487    
   154.00  0.24296    
   155.00  0.25133    
   156.00  0.25995    
   157.00  0.26875    
   158.00  0.27759    
   159.00  0.28627    
   160.00  0.29444    
   161.00  0.30163    
   162.00  0.30722    
   163.00  0.31047    
   164.00  0.31054    
   165.00  0.30659    
   166.00  0.29792    
   167.00  0.28420    
   168.00  0.26562    
   169.00  0.24315    
   170.00  0.21865    
   171.00  0.19481    
   172.00  0.17488    
   173.00  0.16213    
   174.00  0.15906    
   175.00  0.16660    
   176.00  0.18347    
   177.00  0.20599    
   178.00  0.22866    
   179.00  0.24545    
   180.00  0.25165    
 |--------|------------|
0.360000     micron = Wavelength
 2.94166     = Extinction efficiency (Q)
 2.94166     = Scattering efficiency (Qs)
 0.00000     = Absorption efficiency (Qa)
 49.9360     = Lidar ratio
0.437500     micron^2 = <b> = Average surface area per particle
 1.28698     microns^2 = Extinction cross section (C)
 1.28698     microns^2 = Scattering cross section (Cs)
 0.00000     microns^2 = Absorption cross section (Ca)
 |----------------------------------------------------|
 | COMMENTAIRES:                                      |
 |----------------------------------------------------|
 |   -Cross section / <b> should = efficiency         |
 |    is independant of the normalisation of dN/dx    |
 |   -The integral of the phase fct / 4 pi over all   |
 |    directions (solid angle) = 1.                   |
 |   -The volume coefficient (k) is equal to C * N    |
 |      = cross section * Number density              |
 |      typical units: [um^2]*[particles/cm^3] =      |
 |      [10^-3 km-1]                                  |
 |      N = M/(d*4/3*pi*r^3) where d is the density   |
 |      of particle, M is the mass per unit volume    |
 |      and 4/3*pi*r^3 is the average volume  of a    |
 |      particle.                                     |
 |      typical units:  M -> [ug/m^3], d -> [g/cm^3]  |
 |                      r -> [um]                     |
 |      Lidar ratio= 4 pi Qe / phase_fct(180)*Qs      |
 |----------------------------------------------------|
