 |--------|------------|
 | ANGLE  |  PHASE FCT |
 |--------|------------|
     0.00   79.036    
     1.00   77.542    
     2.00   73.318    
     3.00   67.044    
     4.00   59.583    
     5.00   51.751    
     6.00   44.169    
     7.00   37.233    
     8.00   31.147    
     9.00   25.968    
    10.00   21.659    
    11.00   18.132    
    12.00   15.279    
    13.00   12.988    
    14.00   11.152    
    15.00   9.6821    
    16.00   8.4998    
    17.00   7.5420    
    18.00   6.7585    
    19.00   6.1096    
    20.00   5.5646    
    21.00   5.1003    
    22.00   4.6988    
    23.00   4.3467    
    24.00   4.0338    
    25.00   3.7529    
    26.00   3.4981    
    27.00   3.2652    
    28.00   3.0510    
    29.00   2.8531    
    30.00   2.6695    
    31.00   2.4988    
    32.00   2.3398    
    33.00   2.1914    
    34.00   2.0529    
    35.00   1.9235    
    36.00   1.8027    
    37.00   1.6897    
    38.00   1.5842    
    39.00   1.4856    
    40.00   1.3934    
    41.00   1.3074    
    42.00   1.2270    
    43.00   1.1519    
    44.00   1.0818    
    45.00   1.0163    
    46.00  0.95514    
    47.00  0.89804    
    48.00  0.84471    
    49.00  0.79491    
    50.00  0.74838    
    51.00  0.70492    
    52.00  0.66432    
    53.00  0.62637    
    54.00  0.59090    
    55.00  0.55774    
    56.00  0.52673    
    57.00  0.49773    
    58.00  0.47060    
    59.00  0.44521    
    60.00  0.42144    
    61.00  0.39918    
    62.00  0.37835    
    63.00  0.35882    
    64.00  0.34053    
    65.00  0.32339    
    66.00  0.30732    
    67.00  0.29225    
    68.00  0.27812    
    69.00  0.26487    
    70.00  0.25244    
    71.00  0.24078    
    72.00  0.22984    
    73.00  0.21957    
    74.00  0.20994    
    75.00  0.20090    
    76.00  0.19242    
    77.00  0.18446    
    78.00  0.17700    
    79.00  0.16999    
    80.00  0.16343    
    81.00  0.15727    
    82.00  0.15150    
    83.00  0.14610    
    84.00  0.14104    
    85.00  0.13630    
    86.00  0.13187    
    87.00  0.12773    
    88.00  0.12386    
    89.00  0.12025    
    90.00  0.11688    
    91.00  0.11375    
    92.00  0.11084    
    93.00  0.10813    
    94.00  0.10563    
    95.00  0.10331    
    96.00  0.10118    
    97.00  0.99218E-01
    98.00  0.97423E-01
    99.00  0.95788E-01
   100.00  0.94305E-01
   101.00  0.92972E-01
   102.00  0.91781E-01
   103.00  0.90732E-01
   104.00  0.89819E-01
   105.00  0.89041E-01
   106.00  0.88396E-01
   107.00  0.87882E-01
   108.00  0.87499E-01
   109.00  0.87248E-01
   110.00  0.87129E-01
   111.00  0.87144E-01
   112.00  0.87296E-01
   113.00  0.87587E-01
   114.00  0.88022E-01
   115.00  0.88603E-01
   116.00  0.89337E-01
   117.00  0.90228E-01
   118.00  0.91284E-01
   119.00  0.92511E-01
   120.00  0.93915E-01
   121.00  0.95504E-01
   122.00  0.97285E-01
   123.00  0.99268E-01
   124.00  0.10146    
   125.00  0.10386    
   126.00  0.10649    
   127.00  0.10935    
   128.00  0.11244    
   129.00  0.11576    
   130.00  0.11932    
   131.00  0.12313    
   132.00  0.12716    
   133.00  0.13142    
   134.00  0.13590    
   135.00  0.14057    
   136.00  0.14542    
   137.00  0.15042    
   138.00  0.15555    
   139.00  0.16075    
   140.00  0.16599    
   141.00  0.17123    
   142.00  0.17640    
   143.00  0.18147    
   144.00  0.18636    
   145.00  0.19104    
   146.00  0.19546    
   147.00  0.19957    
   148.00  0.20336    
   149.00  0.20682    
   150.00  0.20997    
   151.00  0.21286    
   152.00  0.21556    
   153.00  0.21822    
   154.00  0.22097    
   155.00  0.22404    
   156.00  0.22766    
   157.00  0.23212    
   158.00  0.23769    
   159.00  0.24465    
   160.00  0.25321    
   161.00  0.26343    
   162.00  0.27518    
   163.00  0.28802    
   164.00  0.30107    
   165.00  0.31300    
   166.00  0.32203    
   167.00  0.32607    
   168.00  0.32310    
   169.00  0.31171    
   170.00  0.29182    
   171.00  0.26537    
   172.00  0.23662    
   173.00  0.21181    
   174.00  0.19796    
   175.00  0.20069    
   176.00  0.22185    
   177.00  0.25762    
   178.00  0.29830    
   179.00  0.33066    
   180.00  0.34301    
 |--------|------------|
0.660000     micron = Wavelength
 2.71262     = Extinction efficiency (Q)
 2.71262     = Scattering efficiency (Qs)
 0.00000     = Absorption efficiency (Qa)
 36.6357     = Lidar ratio
 2.43679     micron^2 = <b> = Average surface area per particle
 6.61008     microns^2 = Extinction cross section (C)
 6.61008     microns^2 = Scattering cross section (Cs)
0.154756E-14 microns^2 = Absorption cross section (Ca)
 |----------------------------------------------------|
 | COMMENTAIRES:                                      |
 |----------------------------------------------------|
 |   -Cross section / <b> should = efficiency         |
 |    is independant of the normalisation of dN/dx    |
 |   -The integral of the phase fct / 4 pi over all   |
 |    directions (solid angle) = 1.                   |
 |   -The volume coefficient (k) is equal to C * N    |
 |      = cross section * Number density              |
 |      typical units: [um^2]*[particles/cm^3] =      |
 |      [10^-3 km-1]                                  |
 |      N = M/(d*4/3*pi*r^3) where d is the density   |
 |      of particle, M is the mass per unit volume    |
 |      and 4/3*pi*r^3 is the average volume  of a    |
 |      particle.                                     |
 |      typical units:  M -> [ug/m^3], d -> [g/cm^3]  |
 |                      r -> [um]                     |
 |      Lidar ratio= 4 pi Qe / phase_fct(180)*Qs      |
 |----------------------------------------------------|
