 |--------|------------|
 | ANGLE  |  PHASE FCT |
 |--------|------------|
     0.00   62.248    
     1.00   61.385    
     2.00   58.912    
     3.00   55.138    
     4.00   50.481    
     5.00   45.370    
     6.00   40.173    
     7.00   35.167    
     8.00   30.534    
     9.00   26.372    
    10.00   22.717    
    11.00   19.564    
    12.00   16.876    
    13.00   14.606    
    14.00   12.700    
    15.00   11.104    
    16.00   9.7690    
    17.00   8.6498    
    18.00   7.7082    
    19.00   6.9118    
    20.00   6.2337    
    21.00   5.6521    
    22.00   5.1491    
    23.00   4.7104    
    24.00   4.3247    
    25.00   3.9828    
    26.00   3.6776    
    27.00   3.4031    
    28.00   3.1550    
    29.00   2.9294    
    30.00   2.7235    
    31.00   2.5348    
    32.00   2.3614    
    33.00   2.2016    
    34.00   2.0540    
    35.00   1.9176    
    36.00   1.7912    
    37.00   1.6740    
    38.00   1.5653    
    39.00   1.4644    
    40.00   1.3706    
    41.00   1.2834    
    42.00   1.2024    
    43.00   1.1270    
    44.00   1.0569    
    45.00  0.99158    
    46.00  0.93082    
    47.00  0.87423    
    48.00  0.82153    
    49.00  0.77242    
    50.00  0.72666    
    51.00  0.68400    
    52.00  0.64422    
    53.00  0.60711    
    54.00  0.57249    
    55.00  0.54018    
    56.00  0.51001    
    57.00  0.48184    
    58.00  0.45552    
    59.00  0.43092    
    60.00  0.40792    
    61.00  0.38642    
    62.00  0.36630    
    63.00  0.34748    
    64.00  0.32986    
    65.00  0.31336    
    66.00  0.29791    
    67.00  0.28344    
    68.00  0.26989    
    69.00  0.25718    
    70.00  0.24527    
    71.00  0.23410    
    72.00  0.22362    
    73.00  0.21380    
    74.00  0.20459    
    75.00  0.19594    
    76.00  0.18784    
    77.00  0.18023    
    78.00  0.17309    
    79.00  0.16640    
    80.00  0.16012    
    81.00  0.15423    
    82.00  0.14871    
    83.00  0.14353    
    84.00  0.13868    
    85.00  0.13414    
    86.00  0.12988    
    87.00  0.12590    
    88.00  0.12217    
    89.00  0.11868    
    90.00  0.11543    
    91.00  0.11239    
    92.00  0.10956    
    93.00  0.10693    
    94.00  0.10449    
    95.00  0.10222    
    96.00  0.10012    
    97.00  0.98182E-01
    98.00  0.96401E-01
    99.00  0.94770E-01
   100.00  0.93283E-01
   101.00  0.91935E-01
   102.00  0.90722E-01
   103.00  0.89640E-01
   104.00  0.88687E-01
   105.00  0.87859E-01
   106.00  0.87156E-01
   107.00  0.86574E-01
   108.00  0.86113E-01
   109.00  0.85775E-01
   110.00  0.85556E-01
   111.00  0.85460E-01
   112.00  0.85487E-01
   113.00  0.85638E-01
   114.00  0.85916E-01
   115.00  0.86323E-01
   116.00  0.86862E-01
   117.00  0.87536E-01
   118.00  0.88349E-01
   119.00  0.89305E-01
   120.00  0.90409E-01
   121.00  0.91664E-01
   122.00  0.93076E-01
   123.00  0.94648E-01
   124.00  0.96386E-01
   125.00  0.98294E-01
   126.00  0.10037    
   127.00  0.10263    
   128.00  0.10507    
   129.00  0.10769    
   130.00  0.11050    
   131.00  0.11348    
   132.00  0.11664    
   133.00  0.11998    
   134.00  0.12349    
   135.00  0.12716    
   136.00  0.13097    
   137.00  0.13492    
   138.00  0.13898    
   139.00  0.14314    
   140.00  0.14737    
   141.00  0.15164    
   142.00  0.15594    
   143.00  0.16023    
   144.00  0.16449    
   145.00  0.16869    
   146.00  0.17281    
   147.00  0.17684    
   148.00  0.18078    
   149.00  0.18462    
   150.00  0.18840    
   151.00  0.19215    
   152.00  0.19593    
   153.00  0.19981    
   154.00  0.20391    
   155.00  0.20832    
   156.00  0.21318    
   157.00  0.21860    
   158.00  0.22468    
   159.00  0.23145    
   160.00  0.23887    
   161.00  0.24676    
   162.00  0.25476    
   163.00  0.26229    
   164.00  0.26852    
   165.00  0.27239    
   166.00  0.27273    
   167.00  0.26840    
   168.00  0.25859    
   169.00  0.24315    
   170.00  0.22301    
   171.00  0.20035    
   172.00  0.17860    
   173.00  0.16198    
   174.00  0.15454    
   175.00  0.15891    
   176.00  0.17501    
   177.00  0.19942    
   178.00  0.22562    
   179.00  0.24576    
   180.00  0.25332    
 |--------|------------|
0.610000     micron = Wavelength
 2.87561     = Extinction efficiency (Q)
 2.87561     = Scattering efficiency (Qs)
 0.00000     = Absorption efficiency (Qa)
 49.6068     = Lidar ratio
 1.56998     micron^2 = <b> = Average surface area per particle
 4.51465     microns^2 = Extinction cross section (C)
 4.51465     microns^2 = Scattering cross section (Cs)
0.132196E-14 microns^2 = Absorption cross section (Ca)
 |----------------------------------------------------|
 | COMMENTAIRES:                                      |
 |----------------------------------------------------|
 |   -Cross section / <b> should = efficiency         |
 |    is independant of the normalisation of dN/dx    |
 |   -The integral of the phase fct / 4 pi over all   |
 |    directions (solid angle) = 1.                   |
 |   -The volume coefficient (k) is equal to C * N    |
 |      = cross section * Number density              |
 |      typical units: [um^2]*[particles/cm^3] =      |
 |      [10^-3 km-1]                                  |
 |      N = M/(d*4/3*pi*r^3) where d is the density   |
 |      of particle, M is the mass per unit volume    |
 |      and 4/3*pi*r^3 is the average volume  of a    |
 |      particle.                                     |
 |      typical units:  M -> [ug/m^3], d -> [g/cm^3]  |
 |                      r -> [um]                     |
 |      Lidar ratio= 4 pi Qe / phase_fct(180)*Qs      |
 |----------------------------------------------------|
