 |--------|------------|
 | ANGLE  |  PHASE FCT |
 |--------|------------|
     0.00   36.911    
     1.00   36.690    
     2.00   36.038    
     3.00   34.994    
     4.00   33.615    
     5.00   31.970    
     6.00   30.130    
     7.00   28.167    
     8.00   26.145    
     9.00   24.118    
    10.00   22.131    
    11.00   20.217    
    12.00   18.400    
    13.00   16.696    
    14.00   15.114    
    15.00   13.658    
    16.00   12.326    
    17.00   11.116    
    18.00   10.020    
    19.00   9.0325    
    20.00   8.1447    
    21.00   7.3485    
    22.00   6.6355    
    23.00   5.9980    
    24.00   5.4282    
    25.00   4.9192    
    26.00   4.4643    
    27.00   4.0577    
    28.00   3.6941    
    29.00   3.3685    
    30.00   3.0767    
    31.00   2.8148    
    32.00   2.5795    
    33.00   2.3677    
    34.00   2.1768    
    35.00   2.0045    
    36.00   1.8486    
    37.00   1.7074    
    38.00   1.5792    
    39.00   1.4628    
    40.00   1.3567    
    41.00   1.2600    
    42.00   1.1716    
    43.00   1.0908    
    44.00   1.0168    
    45.00  0.94883    
    46.00  0.88641    
    47.00  0.82899    
    48.00  0.77609    
    49.00  0.72731    
    50.00  0.68226    
    51.00  0.64062    
    52.00  0.60210    
    53.00  0.56642    
    54.00  0.53333    
    55.00  0.50263    
    56.00  0.47412    
    57.00  0.44762    
    58.00  0.42297    
    59.00  0.40002    
    60.00  0.37863    
    61.00  0.35870    
    62.00  0.34011    
    63.00  0.32276    
    64.00  0.30654    
    65.00  0.29140    
    66.00  0.27723    
    67.00  0.26398    
    68.00  0.25158    
    69.00  0.23997    
    70.00  0.22909    
    71.00  0.21889    
    72.00  0.20933    
    73.00  0.20037    
    74.00  0.19196    
    75.00  0.18406    
    76.00  0.17665    
    77.00  0.16969    
    78.00  0.16315    
    79.00  0.15701    
    80.00  0.15123    
    81.00  0.14581    
    82.00  0.14071    
    83.00  0.13592    
    84.00  0.13141    
    85.00  0.12718    
    86.00  0.12320    
    87.00  0.11946    
    88.00  0.11595    
    89.00  0.11265    
    90.00  0.10955    
    91.00  0.10664    
    92.00  0.10392    
    93.00  0.10136    
    94.00  0.98975E-01
    95.00  0.96740E-01
    96.00  0.94654E-01
    97.00  0.92708E-01
    98.00  0.90897E-01
    99.00  0.89216E-01
   100.00  0.87659E-01
   101.00  0.86221E-01
   102.00  0.84898E-01
   103.00  0.83686E-01
   104.00  0.82582E-01
   105.00  0.81583E-01
   106.00  0.80685E-01
   107.00  0.79885E-01
   108.00  0.79184E-01
   109.00  0.78578E-01
   110.00  0.78065E-01
   111.00  0.77645E-01
   112.00  0.77317E-01
   113.00  0.77079E-01
   114.00  0.76932E-01
   115.00  0.76876E-01
   116.00  0.76909E-01
   117.00  0.77033E-01
   118.00  0.77248E-01
   119.00  0.77555E-01
   120.00  0.77954E-01
   121.00  0.78447E-01
   122.00  0.79035E-01
   123.00  0.79718E-01
   124.00  0.80499E-01
   125.00  0.81379E-01
   126.00  0.82359E-01
   127.00  0.83442E-01
   128.00  0.84629E-01
   129.00  0.85922E-01
   130.00  0.87322E-01
   131.00  0.88831E-01
   132.00  0.90452E-01
   133.00  0.92184E-01
   134.00  0.94031E-01
   135.00  0.95993E-01
   136.00  0.98070E-01
   137.00  0.10027    
   138.00  0.10258    
   139.00  0.10501    
   140.00  0.10756    
   141.00  0.11023    
   142.00  0.11302    
   143.00  0.11593    
   144.00  0.11895    
   145.00  0.12209    
   146.00  0.12534    
   147.00  0.12870    
   148.00  0.13216    
   149.00  0.13571    
   150.00  0.13935    
   151.00  0.14304    
   152.00  0.14678    
   153.00  0.15052    
   154.00  0.15423    
   155.00  0.15784    
   156.00  0.16127    
   157.00  0.16442    
   158.00  0.16718    
   159.00  0.16940    
   160.00  0.17090    
   161.00  0.17150    
   162.00  0.17099    
   163.00  0.16919    
   164.00  0.16594    
   165.00  0.16117    
   166.00  0.15489    
   167.00  0.14729    
   168.00  0.13872    
   169.00  0.12976    
   170.00  0.12113    
   171.00  0.11369    
   172.00  0.10830    
   173.00  0.10563    
   174.00  0.10606    
   175.00  0.10943    
   176.00  0.11508    
   177.00  0.12182    
   178.00  0.12818    
   179.00  0.13271    
   180.00  0.13435    
 |--------|------------|
0.570000     micron = Wavelength
 3.12738     = Extinction efficiency (Q)
 3.12738     = Scattering efficiency (Qs)
 0.00000     = Absorption efficiency (Qa)
 93.5314     = Lidar ratio
0.625717     micron^2 = <b> = Average surface area per particle
 1.95685     microns^2 = Extinction cross section (C)
 1.95685     microns^2 = Scattering cross section (Cs)
 0.00000     microns^2 = Absorption cross section (Ca)
 |----------------------------------------------------|
 | COMMENTAIRES:                                      |
 |----------------------------------------------------|
 |   -Cross section / <b> should = efficiency         |
 |    is independant of the normalisation of dN/dx    |
 |   -The integral of the phase fct / 4 pi over all   |
 |    directions (solid angle) = 1.                   |
 |   -The volume coefficient (k) is equal to C * N    |
 |      = cross section * Number density              |
 |      typical units: [um^2]*[particles/cm^3] =      |
 |      [10^-3 km-1]                                  |
 |      N = M/(d*4/3*pi*r^3) where d is the density   |
 |      of particle, M is the mass per unit volume    |
 |      and 4/3*pi*r^3 is the average volume  of a    |
 |      particle.                                     |
 |      typical units:  M -> [ug/m^3], d -> [g/cm^3]  |
 |                      r -> [um]                     |
 |      Lidar ratio= 4 pi Qe / phase_fct(180)*Qs      |
 |----------------------------------------------------|
