 |--------|------------|
 | ANGLE  |  PHASE FCT |
 |--------|------------|
     0.00   271.44    
     1.00   254.80    
     2.00   211.93    
     3.00   158.96    
     4.00   110.73    
     5.00   74.265    
     6.00   49.491    
     7.00   33.450    
     8.00   23.297    
     9.00   16.980    
    10.00   13.047    
    11.00   10.525    
    12.00   8.8455    
    13.00   7.6864    
    14.00   6.8465    
    15.00   6.2026    
    16.00   5.6831    
    17.00   5.2437    
    18.00   4.8601    
    19.00   4.5228    
    20.00   4.2231    
    21.00   3.9494    
    22.00   3.6956    
    23.00   3.4629    
    24.00   3.2509    
    25.00   3.0544    
    26.00   2.8697    
    27.00   2.6973    
    28.00   2.5382    
    29.00   2.3902    
    30.00   2.2504    
    31.00   2.1186    
    32.00   1.9961    
    33.00   1.8819    
    34.00   1.7739    
    35.00   1.6717    
    36.00   1.5764    
    37.00   1.4873    
    38.00   1.4029    
    39.00   1.3230    
    40.00   1.2484    
    41.00   1.1786    
    42.00   1.1124    
    43.00   1.0497    
    44.00  0.99105    
    45.00  0.93610    
    46.00  0.88402    
    47.00  0.83477    
    48.00  0.78865    
    49.00  0.74532    
    50.00  0.70423    
    51.00  0.66546    
    52.00  0.62915    
    53.00  0.59495    
    54.00  0.56251    
    55.00  0.53195    
    56.00  0.50333    
    57.00  0.47633    
    58.00  0.45071    
    59.00  0.42658    
    60.00  0.40398    
    61.00  0.38264    
    62.00  0.36241    
    63.00  0.34336    
    64.00  0.32549    
    65.00  0.30860    
    66.00  0.29262    
    67.00  0.27759    
    68.00  0.26347    
    69.00  0.25013    
    70.00  0.23751    
    71.00  0.22563    
    72.00  0.21449    
    73.00  0.20397    
    74.00  0.19403    
    75.00  0.18467    
    76.00  0.17589    
    77.00  0.16763    
    78.00  0.15983    
    79.00  0.15251    
    80.00  0.14564    
    81.00  0.13919    
    82.00  0.13312    
    83.00  0.12743    
    84.00  0.12212    
    85.00  0.11713    
    86.00  0.11246    
    87.00  0.10813    
    88.00  0.10410    
    89.00  0.10031    
    90.00  0.96804E-01
    91.00  0.93582E-01
    92.00  0.90607E-01
    93.00  0.87860E-01
    94.00  0.85341E-01
    95.00  0.83032E-01
    96.00  0.80924E-01
    97.00  0.79026E-01
    98.00  0.77314E-01
    99.00  0.75756E-01
   100.00  0.74358E-01
   101.00  0.73115E-01
   102.00  0.71993E-01
   103.00  0.70990E-01
   104.00  0.70119E-01
   105.00  0.69350E-01
   106.00  0.68654E-01
   107.00  0.68046E-01
   108.00  0.67528E-01
   109.00  0.67078E-01
   110.00  0.66697E-01
   111.00  0.66398E-01
   112.00  0.66171E-01
   113.00  0.66016E-01
   114.00  0.65948E-01
   115.00  0.65974E-01
   116.00  0.66105E-01
   117.00  0.66369E-01
   118.00  0.66779E-01
   119.00  0.67333E-01
   120.00  0.68070E-01
   121.00  0.69051E-01
   122.00  0.70291E-01
   123.00  0.71804E-01
   124.00  0.73647E-01
   125.00  0.75880E-01
   126.00  0.78538E-01
   127.00  0.81677E-01
   128.00  0.85374E-01
   129.00  0.89668E-01
   130.00  0.94598E-01
   131.00  0.10026    
   132.00  0.10671    
   133.00  0.11394    
   134.00  0.12200    
   135.00  0.13099    
   136.00  0.14088    
   137.00  0.15152    
   138.00  0.16289    
   139.00  0.17497    
   140.00  0.18751    
   141.00  0.20030    
   142.00  0.21315    
   143.00  0.22572    
   144.00  0.23756    
   145.00  0.24841    
   146.00  0.25805    
   147.00  0.26603    
   148.00  0.27192    
   149.00  0.27572    
   150.00  0.27748    
   151.00  0.27714    
   152.00  0.27482    
   153.00  0.27100    
   154.00  0.26621    
   155.00  0.26089    
   156.00  0.25565    
   157.00  0.25112    
   158.00  0.24774    
   159.00  0.24602    
   160.00  0.24672    
   161.00  0.25042    
   162.00  0.25779    
   163.00  0.27008    
   164.00  0.28867    
   165.00  0.31420    
   166.00  0.34705    
   167.00  0.38702    
   168.00  0.43107    
   169.00  0.47324    
   170.00  0.50747    
   171.00  0.52848    
   172.00  0.53230    
   173.00  0.52013    
   174.00  0.49869    
   175.00  0.47546    
   176.00  0.46457    
   177.00  0.49622    
   178.00  0.59095    
   179.00  0.71009    
   180.00  0.76583    
 |--------|------------|
0.340000     micron = Wavelength
 2.30007     = Extinction efficiency (Q)
 2.30007     = Scattering efficiency (Qs)
 0.00000     = Absorption efficiency (Qa)
 16.4088     = Lidar ratio
 2.41882     micron^2 = <b> = Average surface area per particle
 5.56344     microns^2 = Extinction cross section (C)
 5.56344     microns^2 = Scattering cross section (Cs)
 0.00000     microns^2 = Absorption cross section (Ca)
 |----------------------------------------------------|
 | COMMENTAIRES:                                      |
 |----------------------------------------------------|
 |   -Cross section / <b> should = efficiency         |
 |    is independant of the normalisation of dN/dx    |
 |   -The integral of the phase fct / 4 pi over all   |
 |    directions (solid angle) = 1.                   |
 |   -The volume coefficient (k) is equal to C * N    |
 |      = cross section * Number density              |
 |      typical units: [um^2]*[particles/cm^3] =      |
 |      [10^-3 km-1]                                  |
 |      N = M/(d*4/3*pi*r^3) where d is the density   |
 |      of particle, M is the mass per unit volume    |
 |      and 4/3*pi*r^3 is the average volume  of a    |
 |      particle.                                     |
 |      typical units:  M -> [ug/m^3], d -> [g/cm^3]  |
 |                      r -> [um]                     |
 |      Lidar ratio= 4 pi Qe / phase_fct(180)*Qs      |
 |----------------------------------------------------|
