 |--------|------------|
 | ANGLE  |  PHASE FCT |
 |--------|------------|
     0.00   16.366    
     1.00   16.328    
     2.00   16.214    
     3.00   16.026    
     4.00   15.770    
     5.00   15.449    
     6.00   15.071    
     7.00   14.644    
     8.00   14.174    
     9.00   13.669    
    10.00   13.137    
    11.00   12.585    
    12.00   12.021    
    13.00   11.451    
    14.00   10.880    
    15.00   10.313    
    16.00   9.7546    
    17.00   9.2087    
    18.00   8.6781    
    19.00   8.1651    
    20.00   7.6716    
    21.00   7.1990    
    22.00   6.7481    
    23.00   6.3195    
    24.00   5.9134    
    25.00   5.5297    
    26.00   5.1681    
    27.00   4.8281    
    28.00   4.5091    
    29.00   4.2104    
    30.00   3.9310    
    31.00   3.6701    
    32.00   3.4269    
    33.00   3.2002    
    34.00   2.9893    
    35.00   2.7931    
    36.00   2.6108    
    37.00   2.4414    
    38.00   2.2841    
    39.00   2.1381    
    40.00   2.0026    
    41.00   1.8768    
    42.00   1.7601    
    43.00   1.6517    
    44.00   1.5512    
    45.00   1.4578    
    46.00   1.3711    
    47.00   1.2905    
    48.00   1.2156    
    49.00   1.1460    
    50.00   1.0812    
    51.00   1.0209    
    52.00  0.96478    
    53.00  0.91248    
    54.00  0.86372    
    55.00  0.81822    
    56.00  0.77576    
    57.00  0.73610    
    58.00  0.69903    
    59.00  0.66435    
    60.00  0.63190    
    61.00  0.60151    
    62.00  0.57303    
    63.00  0.54632    
    64.00  0.52126    
    65.00  0.49772    
    66.00  0.47562    
    67.00  0.45483    
    68.00  0.43528    
    69.00  0.41688    
    70.00  0.39955    
    71.00  0.38322    
    72.00  0.36783    
    73.00  0.35331    
    74.00  0.33961    
    75.00  0.32668    
    76.00  0.31446    
    77.00  0.30292    
    78.00  0.29201    
    79.00  0.28170    
    80.00  0.27194    
    81.00  0.26272    
    82.00  0.25399    
    83.00  0.24573    
    84.00  0.23791    
    85.00  0.23050    
    86.00  0.22350    
    87.00  0.21687    
    88.00  0.21059    
    89.00  0.20465    
    90.00  0.19903    
    91.00  0.19372    
    92.00  0.18869    
    93.00  0.18394    
    94.00  0.17945    
    95.00  0.17522    
    96.00  0.17123    
    97.00  0.16747    
    98.00  0.16393    
    99.00  0.16060    
   100.00  0.15749    
   101.00  0.15457    
   102.00  0.15184    
   103.00  0.14930    
   104.00  0.14694    
   105.00  0.14476    
   106.00  0.14274    
   107.00  0.14090    
   108.00  0.13922    
   109.00  0.13771    
   110.00  0.13635    
   111.00  0.13515    
   112.00  0.13411    
   113.00  0.13323    
   114.00  0.13249    
   115.00  0.13192    
   116.00  0.13149    
   117.00  0.13122    
   118.00  0.13111    
   119.00  0.13116    
   120.00  0.13136    
   121.00  0.13172    
   122.00  0.13224    
   123.00  0.13292    
   124.00  0.13378    
   125.00  0.13479    
   126.00  0.13598    
   127.00  0.13734    
   128.00  0.13887    
   129.00  0.14057    
   130.00  0.14245    
   131.00  0.14450    
   132.00  0.14673    
   133.00  0.14913    
   134.00  0.15170    
   135.00  0.15443    
   136.00  0.15731    
   137.00  0.16035    
   138.00  0.16352    
   139.00  0.16681    
   140.00  0.17021    
   141.00  0.17370    
   142.00  0.17724    
   143.00  0.18081    
   144.00  0.18439    
   145.00  0.18793    
   146.00  0.19139    
   147.00  0.19474    
   148.00  0.19792    
   149.00  0.20090    
   150.00  0.20363    
   151.00  0.20606    
   152.00  0.20816    
   153.00  0.20990    
   154.00  0.21126    
   155.00  0.21225    
   156.00  0.21288    
   157.00  0.21320    
   158.00  0.21327    
   159.00  0.21319    
   160.00  0.21310    
   161.00  0.21314    
   162.00  0.21351    
   163.00  0.21442    
   164.00  0.21607    
   165.00  0.21868    
   166.00  0.22244    
   167.00  0.22752    
   168.00  0.23402    
   169.00  0.24196    
   170.00  0.25127    
   171.00  0.26178    
   172.00  0.27322    
   173.00  0.28518    
   174.00  0.29721    
   175.00  0.30875    
   176.00  0.31923    
   177.00  0.32808    
   178.00  0.33481    
   179.00  0.33902    
   180.00  0.34046    
 |--------|------------|
0.400000     micron = Wavelength
 3.17586     = Extinction efficiency (Q)
 3.17586     = Scattering efficiency (Qs)
 0.00000     = Absorption efficiency (Qa)
 36.9104     = Lidar ratio
0.110755     micron^2 = <b> = Average surface area per particle
0.351742     microns^2 = Extinction cross section (C)
0.351742     microns^2 = Scattering cross section (Cs)
 0.00000     microns^2 = Absorption cross section (Ca)
 |----------------------------------------------------|
 | COMMENTAIRES:                                      |
 |----------------------------------------------------|
 |   -Cross section / <b> should = efficiency         |
 |    is independant of the normalisation of dN/dx    |
 |   -The integral of the phase fct / 4 pi over all   |
 |    directions (solid angle) = 1.                   |
 |   -The volume coefficient (k) is equal to C * N    |
 |      = cross section * Number density              |
 |      typical units: [um^2]*[particles/cm^3] =      |
 |      [10^-3 km-1]                                  |
 |      N = M/(d*4/3*pi*r^3) where d is the density   |
 |      of particle, M is the mass per unit volume    |
 |      and 4/3*pi*r^3 is the average volume  of a    |
 |      particle.                                     |
 |      typical units:  M -> [ug/m^3], d -> [g/cm^3]  |
 |                      r -> [um]                     |
 |      Lidar ratio= 4 pi Qe / phase_fct(180)*Qs      |
 |----------------------------------------------------|
