 |--------|------------|
 | ANGLE  |  PHASE FCT |
 |--------|------------|
     0.00   19.698    
     1.00   19.650    
     2.00   19.505    
     3.00   19.268    
     4.00   18.944    
     5.00   18.538    
     6.00   18.059    
     7.00   17.517    
     8.00   16.921    
     9.00   16.280    
    10.00   15.605    
    11.00   14.905    
    12.00   14.189    
    13.00   13.466    
    14.00   12.742    
    15.00   12.024    
    16.00   11.319    
    17.00   10.630    
    18.00   9.9620    
    19.00   9.3179    
    20.00   8.7000    
    21.00   8.1102    
    22.00   7.5496    
    23.00   7.0188    
    24.00   6.5179    
    25.00   6.0470    
    26.00   5.6053    
    27.00   5.1922    
    28.00   4.8067    
    29.00   4.4478    
    30.00   4.1143    
    31.00   3.8049    
    32.00   3.5182    
    33.00   3.2530    
    34.00   3.0080    
    35.00   2.7819    
    36.00   2.5733    
    37.00   2.3811    
    38.00   2.2040    
    39.00   2.0411    
    40.00   1.8911    
    41.00   1.7532    
    42.00   1.6263    
    43.00   1.5097    
    44.00   1.4024    
    45.00   1.3037    
    46.00   1.2130    
    47.00   1.1295    
    48.00   1.0526    
    49.00  0.98189    
    50.00  0.91676    
    51.00  0.85674    
    52.00  0.80142    
    53.00  0.75041    
    54.00  0.70333    
    55.00  0.65986    
    56.00  0.61970    
    57.00  0.58257    
    58.00  0.54821    
    59.00  0.51641    
    60.00  0.48694    
    61.00  0.45962    
    62.00  0.43427    
    63.00  0.41074    
    64.00  0.38886    
    65.00  0.36852    
    66.00  0.34960    
    67.00  0.33197    
    68.00  0.31554    
    69.00  0.30021    
    70.00  0.28591    
    71.00  0.27255    
    72.00  0.26007    
    73.00  0.24839    
    74.00  0.23746    
    75.00  0.22723    
    76.00  0.21764    
    77.00  0.20864    
    78.00  0.20021    
    79.00  0.19229    
    80.00  0.18486    
    81.00  0.17787    
    82.00  0.17131    
    83.00  0.16514    
    84.00  0.15933    
    85.00  0.15387    
    86.00  0.14873    
    87.00  0.14389    
    88.00  0.13933    
    89.00  0.13504    
    90.00  0.13101    
    91.00  0.12720    
    92.00  0.12362    
    93.00  0.12025    
    94.00  0.11708    
    95.00  0.11410    
    96.00  0.11130    
    97.00  0.10866    
    98.00  0.10619    
    99.00  0.10387    
   100.00  0.10170    
   101.00  0.99661E-01
   102.00  0.97759E-01
   103.00  0.95985E-01
   104.00  0.94334E-01
   105.00  0.92800E-01
   106.00  0.91380E-01
   107.00  0.90069E-01
   108.00  0.88864E-01
   109.00  0.87762E-01
   110.00  0.86758E-01
   111.00  0.85852E-01
   112.00  0.85040E-01
   113.00  0.84321E-01
   114.00  0.83691E-01
   115.00  0.83151E-01
   116.00  0.82697E-01
   117.00  0.82329E-01
   118.00  0.82046E-01
   119.00  0.81847E-01
   120.00  0.81731E-01
   121.00  0.81698E-01
   122.00  0.81747E-01
   123.00  0.81877E-01
   124.00  0.82089E-01
   125.00  0.82382E-01
   126.00  0.82756E-01
   127.00  0.83212E-01
   128.00  0.83748E-01
   129.00  0.84365E-01
   130.00  0.85063E-01
   131.00  0.85841E-01
   132.00  0.86698E-01
   133.00  0.87634E-01
   134.00  0.88647E-01
   135.00  0.89737E-01
   136.00  0.90901E-01
   137.00  0.92138E-01
   138.00  0.93443E-01
   139.00  0.94814E-01
   140.00  0.96246E-01
   141.00  0.97734E-01
   142.00  0.99270E-01
   143.00  0.10085    
   144.00  0.10246    
   145.00  0.10409    
   146.00  0.10574    
   147.00  0.10738    
   148.00  0.10901    
   149.00  0.11060    
   150.00  0.11215    
   151.00  0.11363    
   152.00  0.11503    
   153.00  0.11632    
   154.00  0.11749    
   155.00  0.11852    
   156.00  0.11940    
   157.00  0.12012    
   158.00  0.12066    
   159.00  0.12104    
   160.00  0.12126    
   161.00  0.12134    
   162.00  0.12131    
   163.00  0.12121    
   164.00  0.12109    
   165.00  0.12103    
   166.00  0.12108    
   167.00  0.12133    
   168.00  0.12185    
   169.00  0.12269    
   170.00  0.12389    
   171.00  0.12548    
   172.00  0.12742    
   173.00  0.12966    
   174.00  0.13210    
   175.00  0.13459    
   176.00  0.13696    
   177.00  0.13906    
   178.00  0.14069    
   179.00  0.14173    
   180.00  0.14209    
 |--------|------------|
0.436000     micron = Wavelength
 2.54354     = Extinction efficiency (Q)
 2.54354     = Scattering efficiency (Qs)
 0.00000     = Absorption efficiency (Qa)
 88.4380     = Lidar ratio
0.126656     micron^2 = <b> = Average surface area per particle
0.322153     microns^2 = Extinction cross section (C)
0.322153     microns^2 = Scattering cross section (Cs)
 0.00000     microns^2 = Absorption cross section (Ca)
 |----------------------------------------------------|
 | COMMENTAIRES:                                      |
 |----------------------------------------------------|
 |   -Cross section / <b> should = efficiency         |
 |    is independant of the normalisation of dN/dx    |
 |   -The integral of the phase fct / 4 pi over all   |
 |    directions (solid angle) = 1.                   |
 |   -The volume coefficient (k) is equal to C * N    |
 |      = cross section * Number density              |
 |      typical units: [um^2]*[particles/cm^3] =      |
 |      [10^-3 km-1]                                  |
 |      N = M/(d*4/3*pi*r^3) where d is the density   |
 |      of particle, M is the mass per unit volume    |
 |      and 4/3*pi*r^3 is the average volume  of a    |
 |      particle.                                     |
 |      typical units:  M -> [ug/m^3], d -> [g/cm^3]  |
 |                      r -> [um]                     |
 |      Lidar ratio= 4 pi Qe / phase_fct(180)*Qs      |
 |----------------------------------------------------|
