 |--------|------------|
 | ANGLE  |  PHASE FCT |
 |--------|------------|
     0.00   19.390    
     1.00   19.344    
     2.00   19.208    
     3.00   18.983    
     4.00   18.675    
     5.00   18.289    
     6.00   17.833    
     7.00   17.316    
     8.00   16.746    
     9.00   16.132    
    10.00   15.484    
    11.00   14.810    
    12.00   14.119    
    13.00   13.418    
    14.00   12.716    
    15.00   12.017    
    16.00   11.329    
    17.00   10.655    
    18.00   9.9992    
    19.00   9.3656    
    20.00   8.7562    
    21.00   8.1730    
    22.00   7.6173    
    23.00   7.0900    
    24.00   6.5912    
    25.00   6.1211    
    26.00   5.6792    
    27.00   5.2651    
    28.00   4.8779    
    29.00   4.5167    
    30.00   4.1804    
    31.00   3.8679    
    32.00   3.5778    
    33.00   3.3091    
    34.00   3.0604    
    35.00   2.8305    
    36.00   2.6182    
    37.00   2.4223    
    38.00   2.2418    
    39.00   2.0754    
    40.00   1.9221    
    41.00   1.7810    
    42.00   1.6512    
    43.00   1.5317    
    44.00   1.4218    
    45.00   1.3206    
    46.00   1.2276    
    47.00   1.1420    
    48.00   1.0632    
    49.00  0.99065    
    50.00  0.92387    
    51.00  0.86235    
    52.00  0.80566    
    53.00  0.75341    
    54.00  0.70521    
    55.00  0.66073    
    56.00  0.61967    
    57.00  0.58173    
    58.00  0.54666    
    59.00  0.51422    
    60.00  0.48419    
    61.00  0.45638    
    62.00  0.43060    
    63.00  0.40669    
    64.00  0.38450    
    65.00  0.36388    
    66.00  0.34472    
    67.00  0.32690    
    68.00  0.31031    
    69.00  0.29485    
    70.00  0.28045    
    71.00  0.26701    
    72.00  0.25447    
    73.00  0.24275    
    74.00  0.23180    
    75.00  0.22155    
    76.00  0.21197    
    77.00  0.20299    
    78.00  0.19458    
    79.00  0.18669    
    80.00  0.17929    
    81.00  0.17235    
    82.00  0.16584    
    83.00  0.15972    
    84.00  0.15396    
    85.00  0.14856    
    86.00  0.14348    
    87.00  0.13869    
    88.00  0.13420    
    89.00  0.12997    
    90.00  0.12599    
    91.00  0.12224    
    92.00  0.11872    
    93.00  0.11540    
    94.00  0.11228    
    95.00  0.10935    
    96.00  0.10659    
    97.00  0.10401    
    98.00  0.10157    
    99.00  0.99292E-01
   100.00  0.97153E-01
   101.00  0.95150E-01
   102.00  0.93277E-01
   103.00  0.91528E-01
   104.00  0.89898E-01
   105.00  0.88381E-01
   106.00  0.86974E-01
   107.00  0.85672E-01
   108.00  0.84471E-01
   109.00  0.83367E-01
   110.00  0.82359E-01
   111.00  0.81442E-01
   112.00  0.80614E-01
   113.00  0.79873E-01
   114.00  0.79216E-01
   115.00  0.78641E-01
   116.00  0.78148E-01
   117.00  0.77733E-01
   118.00  0.77397E-01
   119.00  0.77137E-01
   120.00  0.76953E-01
   121.00  0.76844E-01
   122.00  0.76808E-01
   123.00  0.76845E-01
   124.00  0.76955E-01
   125.00  0.77137E-01
   126.00  0.77390E-01
   127.00  0.77714E-01
   128.00  0.78109E-01
   129.00  0.78573E-01
   130.00  0.79106E-01
   131.00  0.79708E-01
   132.00  0.80377E-01
   133.00  0.81112E-01
   134.00  0.81914E-01
   135.00  0.82779E-01
   136.00  0.83707E-01
   137.00  0.84694E-01
   138.00  0.85738E-01
   139.00  0.86837E-01
   140.00  0.87987E-01
   141.00  0.89183E-01
   142.00  0.90420E-01
   143.00  0.91694E-01
   144.00  0.92996E-01
   145.00  0.94320E-01
   146.00  0.95658E-01
   147.00  0.97000E-01
   148.00  0.98336E-01
   149.00  0.99656E-01
   150.00  0.10095    
   151.00  0.10220    
   152.00  0.10340    
   153.00  0.10453    
   154.00  0.10559    
   155.00  0.10657    
   156.00  0.10744    
   157.00  0.10822    
   158.00  0.10890    
   159.00  0.10947    
   160.00  0.10995    
   161.00  0.11035    
   162.00  0.11070    
   163.00  0.11102    
   164.00  0.11135    
   165.00  0.11173    
   166.00  0.11221    
   167.00  0.11284    
   168.00  0.11366    
   169.00  0.11470    
   170.00  0.11600    
   171.00  0.11756    
   172.00  0.11934    
   173.00  0.12130    
   174.00  0.12337    
   175.00  0.12543    
   176.00  0.12737    
   177.00  0.12905    
   178.00  0.13036    
   179.00  0.13118    
   180.00  0.13147    
 |--------|------------|
0.540000     micron = Wavelength
 2.34522     = Extinction efficiency (Q)
 2.34522     = Scattering efficiency (Qs)
 0.00000     = Absorption efficiency (Qa)
 95.5862     = Lidar ratio
0.180223     micron^2 = <b> = Average surface area per particle
0.422662     microns^2 = Extinction cross section (C)
0.422662     microns^2 = Scattering cross section (Cs)
 0.00000     microns^2 = Absorption cross section (Ca)
 |----------------------------------------------------|
 | COMMENTAIRES:                                      |
 |----------------------------------------------------|
 |   -Cross section / <b> should = efficiency         |
 |    is independant of the normalisation of dN/dx    |
 |   -The integral of the phase fct / 4 pi over all   |
 |    directions (solid angle) = 1.                   |
 |   -The volume coefficient (k) is equal to C * N    |
 |      = cross section * Number density              |
 |      typical units: [um^2]*[particles/cm^3] =      |
 |      [10^-3 km-1]                                  |
 |      N = M/(d*4/3*pi*r^3) where d is the density   |
 |      of particle, M is the mass per unit volume    |
 |      and 4/3*pi*r^3 is the average volume  of a    |
 |      particle.                                     |
 |      typical units:  M -> [ug/m^3], d -> [g/cm^3]  |
 |                      r -> [um]                     |
 |      Lidar ratio= 4 pi Qe / phase_fct(180)*Qs      |
 |----------------------------------------------------|
