 |--------|------------|
 | ANGLE  |  PHASE FCT |
 |--------|------------|
     0.00   17.734    
     1.00   17.696    
     2.00   17.582    
     3.00   17.396    
     4.00   17.139    
     5.00   16.817    
     6.00   16.435    
     7.00   16.001    
     8.00   15.520    
     9.00   14.999    
    10.00   14.447    
    11.00   13.870    
    12.00   13.274    
    13.00   12.668    
    14.00   12.056    
    15.00   11.444    
    16.00   10.837    
    17.00   10.239    
    18.00   9.6534    
    19.00   9.0840    
    20.00   8.5329    
    21.00   8.0022    
    22.00   7.4932    
    23.00   7.0070    
    24.00   6.5443    
    25.00   6.1054    
    26.00   5.6903    
    27.00   5.2990    
    28.00   4.9307    
    29.00   4.5851    
    30.00   4.2614    
    31.00   3.9589    
    32.00   3.6765    
    33.00   3.4134    
    34.00   3.1685    
    35.00   2.9410    
    36.00   2.7298    
    37.00   2.5339    
    38.00   2.3524    
    39.00   2.1844    
    40.00   2.0289    
    41.00   1.8851    
    42.00   1.7522    
    43.00   1.6294    
    44.00   1.5160    
    45.00   1.4112    
    46.00   1.3144    
    47.00   1.2250    
    48.00   1.1425    
    49.00   1.0663    
    50.00  0.99587    
    51.00  0.93083    
    52.00  0.87074    
    53.00  0.81519    
    54.00  0.76382    
    55.00  0.71631    
    56.00  0.67235    
    57.00  0.63165    
    58.00  0.59396    
    59.00  0.55903    
    60.00  0.52664    
    61.00  0.49659    
    62.00  0.46871    
    63.00  0.44281    
    64.00  0.41874    
    65.00  0.39636    
    66.00  0.37553    
    67.00  0.35615    
    68.00  0.33808    
    69.00  0.32125    
    70.00  0.30554    
    71.00  0.29088    
    72.00  0.27719    
    73.00  0.26439    
    74.00  0.25243    
    75.00  0.24123    
    76.00  0.23075    
    77.00  0.22093    
    78.00  0.21173    
    79.00  0.20310    
    80.00  0.19501    
    81.00  0.18741    
    82.00  0.18028    
    83.00  0.17357    
    84.00  0.16727    
    85.00  0.16135    
    86.00  0.15578    
    87.00  0.15055    
    88.00  0.14562    
    89.00  0.14098    
    90.00  0.13662    
    91.00  0.13251    
    92.00  0.12865    
    93.00  0.12501    
    94.00  0.12159    
    95.00  0.11837    
    96.00  0.11534    
    97.00  0.11250    
    98.00  0.10982    
    99.00  0.10731    
   100.00  0.10496    
   101.00  0.10276    
   102.00  0.10069    
   103.00  0.98765E-01
   104.00  0.96966E-01
   105.00  0.95289E-01
   106.00  0.93732E-01
   107.00  0.92289E-01
   108.00  0.90956E-01
   109.00  0.89728E-01
   110.00  0.88603E-01
   111.00  0.87577E-01
   112.00  0.86648E-01
   113.00  0.85812E-01
   114.00  0.85067E-01
   115.00  0.84411E-01
   116.00  0.83842E-01
   117.00  0.83358E-01
   118.00  0.82957E-01
   119.00  0.82638E-01
   120.00  0.82400E-01
   121.00  0.82241E-01
   122.00  0.82161E-01
   123.00  0.82159E-01
   124.00  0.82233E-01
   125.00  0.82382E-01
   126.00  0.82607E-01
   127.00  0.82906E-01
   128.00  0.83279E-01
   129.00  0.83724E-01
   130.00  0.84240E-01
   131.00  0.84827E-01
   132.00  0.85484E-01
   133.00  0.86209E-01
   134.00  0.86999E-01
   135.00  0.87855E-01
   136.00  0.88773E-01
   137.00  0.89750E-01
   138.00  0.90785E-01
   139.00  0.91872E-01
   140.00  0.93009E-01
   141.00  0.94190E-01
   142.00  0.95410E-01
   143.00  0.96664E-01
   144.00  0.97944E-01
   145.00  0.99243E-01
   146.00  0.10055    
   147.00  0.10186    
   148.00  0.10317    
   149.00  0.10446    
   150.00  0.10572    
   151.00  0.10694    
   152.00  0.10811    
   153.00  0.10923    
   154.00  0.11029    
   155.00  0.11127    
   156.00  0.11217    
   157.00  0.11300    
   158.00  0.11375    
   159.00  0.11444    
   160.00  0.11507    
   161.00  0.11566    
   162.00  0.11624    
   163.00  0.11683    
   164.00  0.11748    
   165.00  0.11822    
   166.00  0.11908    
   167.00  0.12011    
   168.00  0.12134    
   169.00  0.12278    
   170.00  0.12445    
   171.00  0.12633    
   172.00  0.12839    
   173.00  0.13056    
   174.00  0.13278    
   175.00  0.13493    
   176.00  0.13690    
   177.00  0.13859    
   178.00  0.13988    
   179.00  0.14070    
   180.00  0.14097    
 |--------|------------|
0.480000     micron = Wavelength
 2.29618     = Extinction efficiency (Q)
 2.29618     = Scattering efficiency (Qs)
 0.00000     = Absorption efficiency (Qa)
 89.1400     = Lidar ratio
0.126655     micron^2 = <b> = Average surface area per particle
0.290823     microns^2 = Extinction cross section (C)
0.290823     microns^2 = Scattering cross section (Cs)
 0.00000     microns^2 = Absorption cross section (Ca)
 |----------------------------------------------------|
 | COMMENTAIRES:                                      |
 |----------------------------------------------------|
 |   -Cross section / <b> should = efficiency         |
 |    is independant of the normalisation of dN/dx    |
 |   -The integral of the phase fct / 4 pi over all   |
 |    directions (solid angle) = 1.                   |
 |   -The volume coefficient (k) is equal to C * N    |
 |      = cross section * Number density              |
 |      typical units: [um^2]*[particles/cm^3] =      |
 |      [10^-3 km-1]                                  |
 |      N = M/(d*4/3*pi*r^3) where d is the density   |
 |      of particle, M is the mass per unit volume    |
 |      and 4/3*pi*r^3 is the average volume  of a    |
 |      particle.                                     |
 |      typical units:  M -> [ug/m^3], d -> [g/cm^3]  |
 |                      r -> [um]                     |
 |      Lidar ratio= 4 pi Qe / phase_fct(180)*Qs      |
 |----------------------------------------------------|
