 |--------|------------|
 | ANGLE  |  PHASE FCT |
 |--------|------------|
     0.00   63.194    
     1.00   62.282    
     2.00   59.672    
     3.00   55.700    
     4.00   50.819    
     5.00   45.485    
     6.00   40.091    
     7.00   34.927    
     8.00   30.176    
     9.00   25.936    
    10.00   22.238    
    11.00   19.069    
    12.00   16.387    
    13.00   14.138    
    14.00   12.264    
    15.00   10.706    
    16.00   9.4110    
    17.00   8.3331    
    18.00   7.4318    
    19.00   6.6738    
    20.00   6.0313    
    21.00   5.4823    
    22.00   5.0087    
    23.00   4.5963    
    24.00   4.2337    
    25.00   3.9121    
    26.00   3.6245    
    27.00   3.3653    
    28.00   3.1302    
    29.00   2.9158    
    30.00   2.7194    
    31.00   2.5386    
    32.00   2.3718    
    33.00   2.2174    
    34.00   2.0744    
    35.00   1.9415    
    36.00   1.8180    
    37.00   1.7030    
    38.00   1.5960    
    39.00   1.4962    
    40.00   1.4033    
    41.00   1.3166    
    42.00   1.2357    
    43.00   1.1603    
    44.00   1.0900    
    45.00   1.0243    
    46.00  0.96305    
    47.00  0.90584    
    48.00  0.85244    
    49.00  0.80257    
    50.00  0.75599    
    51.00  0.71249    
    52.00  0.67183    
    53.00  0.63385    
    54.00  0.59834    
    55.00  0.56514    
    56.00  0.53409    
    57.00  0.50505    
    58.00  0.47787    
    59.00  0.45244    
    60.00  0.42863    
    61.00  0.40633    
    62.00  0.38545    
    63.00  0.36588    
    64.00  0.34755    
    65.00  0.33036    
    66.00  0.31425    
    67.00  0.29914    
    68.00  0.28497    
    69.00  0.27168    
    70.00  0.25921    
    71.00  0.24750    
    72.00  0.23652    
    73.00  0.22621    
    74.00  0.21653    
    75.00  0.20744    
    76.00  0.19891    
    77.00  0.19090    
    78.00  0.18338    
    79.00  0.17631    
    80.00  0.16969    
    81.00  0.16346    
    82.00  0.15762    
    83.00  0.15214    
    84.00  0.14700    
    85.00  0.14218    
    86.00  0.13766    
    87.00  0.13342    
    88.00  0.12945    
    89.00  0.12573    
    90.00  0.12225    
    91.00  0.11900    
    92.00  0.11597    
    93.00  0.11314    
    94.00  0.11050    
    95.00  0.10805    
    96.00  0.10577    
    97.00  0.10366    
    98.00  0.10172    
    99.00  0.99926E-01
   100.00  0.98283E-01
   101.00  0.96785E-01
   102.00  0.95427E-01
   103.00  0.94205E-01
   104.00  0.93116E-01
   105.00  0.92156E-01
   106.00  0.91326E-01
   107.00  0.90622E-01
   108.00  0.90045E-01
   109.00  0.89594E-01
   110.00  0.89269E-01
   111.00  0.89071E-01
   112.00  0.89002E-01
   113.00  0.89064E-01
   114.00  0.89259E-01
   115.00  0.89591E-01
   116.00  0.90062E-01
   117.00  0.90678E-01
   118.00  0.91442E-01
   119.00  0.92359E-01
   120.00  0.93436E-01
   121.00  0.94677E-01
   122.00  0.96088E-01
   123.00  0.97676E-01
   124.00  0.99446E-01
   125.00  0.10141    
   126.00  0.10356    
   127.00  0.10592    
   128.00  0.10848    
   129.00  0.11125    
   130.00  0.11424    
   131.00  0.11744    
   132.00  0.12086    
   133.00  0.12449    
   134.00  0.12834    
   135.00  0.13239    
   136.00  0.13665    
   137.00  0.14108    
   138.00  0.14569    
   139.00  0.15045    
   140.00  0.15535    
   141.00  0.16034    
   142.00  0.16542    
   143.00  0.17055    
   144.00  0.17570    
   145.00  0.18084    
   146.00  0.18594    
   147.00  0.19100    
   148.00  0.19598    
   149.00  0.20091    
   150.00  0.20578    
   151.00  0.21063    
   152.00  0.21551    
   153.00  0.22051    
   154.00  0.22571    
   155.00  0.23123    
   156.00  0.23720    
   157.00  0.24375    
   158.00  0.25095    
   159.00  0.25885    
   160.00  0.26739    
   161.00  0.27634    
   162.00  0.28527    
   163.00  0.29351    
   164.00  0.30011    
   165.00  0.30390    
   166.00  0.30357    
   167.00  0.29788    
   168.00  0.28602    
   169.00  0.26795    
   170.00  0.24483    
   171.00  0.21924    
   172.00  0.19506    
   173.00  0.17700    
   174.00  0.16950    
   175.00  0.17532    
   176.00  0.19425    
   177.00  0.22235    
   178.00  0.25228    
   179.00  0.27520    
   180.00  0.28379    
 |--------|------------|
0.460000     micron = Wavelength
 2.83688     = Extinction efficiency (Q)
 2.83688     = Scattering efficiency (Qs)
 0.00000     = Absorption efficiency (Qa)
 44.2800     = Lidar ratio
0.917853     micron^2 = <b> = Average surface area per particle
 2.60384     microns^2 = Extinction cross section (C)
 2.60384     microns^2 = Scattering cross section (Cs)
0.751754E-15 microns^2 = Absorption cross section (Ca)
 |----------------------------------------------------|
 | COMMENTAIRES:                                      |
 |----------------------------------------------------|
 |   -Cross section / <b> should = efficiency         |
 |    is independant of the normalisation of dN/dx    |
 |   -The integral of the phase fct / 4 pi over all   |
 |    directions (solid angle) = 1.                   |
 |   -The volume coefficient (k) is equal to C * N    |
 |      = cross section * Number density              |
 |      typical units: [um^2]*[particles/cm^3] =      |
 |      [10^-3 km-1]                                  |
 |      N = M/(d*4/3*pi*r^3) where d is the density   |
 |      of particle, M is the mass per unit volume    |
 |      and 4/3*pi*r^3 is the average volume  of a    |
 |      particle.                                     |
 |      typical units:  M -> [ug/m^3], d -> [g/cm^3]  |
 |                      r -> [um]                     |
 |      Lidar ratio= 4 pi Qe / phase_fct(180)*Qs      |
 |----------------------------------------------------|
