 |--------|------------|
 | ANGLE  |  PHASE FCT |
 |--------|------------|
     0.00   46.613    
     1.00   46.198    
     2.00   44.992    
     3.00   43.096    
     4.00   40.659    
     5.00   37.848    
     6.00   34.824    
     7.00   31.732    
     8.00   28.684    
     9.00   25.767    
    10.00   23.036    
    11.00   20.524    
    12.00   18.245    
    13.00   16.202    
    14.00   14.384    
    15.00   12.778    
    16.00   11.365    
    17.00   10.126    
    18.00   9.0411    
    19.00   8.0924    
    20.00   7.2626    
    21.00   6.5359    
    22.00   5.8985    
    23.00   5.3381    
    24.00   4.8442    
    25.00   4.4076    
    26.00   4.0204    
    27.00   3.6759    
    28.00   3.3685    
    29.00   3.0932    
    30.00   2.8459    
    31.00   2.6230    
    32.00   2.4216    
    33.00   2.2391    
    34.00   2.0733    
    35.00   1.9223    
    36.00   1.7845    
    37.00   1.6584    
    38.00   1.5429    
    39.00   1.4369    
    40.00   1.3395    
    41.00   1.2498    
    42.00   1.1671    
    43.00   1.0909    
    44.00   1.0204    
    45.00  0.95529    
    46.00  0.89501    
    47.00  0.83918    
    48.00  0.78743    
    49.00  0.73941    
    50.00  0.69484    
    51.00  0.65344    
    52.00  0.61496    
    53.00  0.57917    
    54.00  0.54586    
    55.00  0.51484    
    56.00  0.48595    
    57.00  0.45902    
    58.00  0.43391    
    59.00  0.41048    
    60.00  0.38861    
    61.00  0.36819    
    62.00  0.34911    
    63.00  0.33127    
    64.00  0.31460    
    65.00  0.29900    
    66.00  0.28440    
    67.00  0.27074    
    68.00  0.25794    
    69.00  0.24596    
    70.00  0.23473    
    71.00  0.22420    
    72.00  0.21433    
    73.00  0.20508    
    74.00  0.19640    
    75.00  0.18826    
    76.00  0.18061    
    77.00  0.17344    
    78.00  0.16671    
    79.00  0.16039    
    80.00  0.15445    
    81.00  0.14888    
    82.00  0.14366    
    83.00  0.13875    
    84.00  0.13414    
    85.00  0.12982    
    86.00  0.12576    
    87.00  0.12195    
    88.00  0.11839    
    89.00  0.11504    
    90.00  0.11191    
    91.00  0.10898    
    92.00  0.10624    
    93.00  0.10369    
    94.00  0.10130    
    95.00  0.99076E-01
    96.00  0.97009E-01
    97.00  0.95091E-01
    98.00  0.93316E-01
    99.00  0.91678E-01
   100.00  0.90172E-01
   101.00  0.88792E-01
   102.00  0.87536E-01
   103.00  0.86399E-01
   104.00  0.85378E-01
   105.00  0.84471E-01
   106.00  0.83674E-01
   107.00  0.82986E-01
   108.00  0.82405E-01
   109.00  0.81930E-01
   110.00  0.81560E-01
   111.00  0.81294E-01
   112.00  0.81133E-01
   113.00  0.81077E-01
   114.00  0.81125E-01
   115.00  0.81279E-01
   116.00  0.81539E-01
   117.00  0.81908E-01
   118.00  0.82386E-01
   119.00  0.82975E-01
   120.00  0.83677E-01
   121.00  0.84494E-01
   122.00  0.85428E-01
   123.00  0.86481E-01
   124.00  0.87657E-01
   125.00  0.88956E-01
   126.00  0.90381E-01
   127.00  0.91934E-01
   128.00  0.93616E-01
   129.00  0.95430E-01
   130.00  0.97377E-01
   131.00  0.99455E-01
   132.00  0.10167    
   133.00  0.10401    
   134.00  0.10649    
   135.00  0.10910    
   136.00  0.11183    
   137.00  0.11468    
   138.00  0.11765    
   139.00  0.12074    
   140.00  0.12394    
   141.00  0.12723    
   142.00  0.13062    
   143.00  0.13411    
   144.00  0.13767    
   145.00  0.14132    
   146.00  0.14505    
   147.00  0.14885    
   148.00  0.15274    
   149.00  0.15672    
   150.00  0.16079    
   151.00  0.16497    
   152.00  0.16927    
   153.00  0.17370    
   154.00  0.17827    
   155.00  0.18297    
   156.00  0.18778    
   157.00  0.19265    
   158.00  0.19750    
   159.00  0.20218    
   160.00  0.20648    
   161.00  0.21013    
   162.00  0.21276    
   163.00  0.21393    
   164.00  0.21318    
   165.00  0.21002    
   166.00  0.20408    
   167.00  0.19519    
   168.00  0.18348    
   169.00  0.16956    
   170.00  0.15453    
   171.00  0.13999    
   172.00  0.12785    
   173.00  0.12002    
   174.00  0.11794    
   175.00  0.12210    
   176.00  0.13170    
   177.00  0.14455    
   178.00  0.15746    
   179.00  0.16698    
   180.00  0.17049    
 |--------|------------|
0.570000     micron = Wavelength
 3.06738     = Extinction efficiency (Q)
 3.06738     = Scattering efficiency (Qs)
 0.00000     = Absorption efficiency (Qa)
 73.7061     = Lidar ratio
0.917851     micron^2 = <b> = Average surface area per particle
 2.81540     microns^2 = Extinction cross section (C)
 2.81540     microns^2 = Scattering cross section (Cs)
 0.00000     microns^2 = Absorption cross section (Ca)
 |----------------------------------------------------|
 | COMMENTAIRES:                                      |
 |----------------------------------------------------|
 |   -Cross section / <b> should = efficiency         |
 |    is independant of the normalisation of dN/dx    |
 |   -The integral of the phase fct / 4 pi over all   |
 |    directions (solid angle) = 1.                   |
 |   -The volume coefficient (k) is equal to C * N    |
 |      = cross section * Number density              |
 |      typical units: [um^2]*[particles/cm^3] =      |
 |      [10^-3 km-1]                                  |
 |      N = M/(d*4/3*pi*r^3) where d is the density   |
 |      of particle, M is the mass per unit volume    |
 |      and 4/3*pi*r^3 is the average volume  of a    |
 |      particle.                                     |
 |      typical units:  M -> [ug/m^3], d -> [g/cm^3]  |
 |                      r -> [um]                     |
 |      Lidar ratio= 4 pi Qe / phase_fct(180)*Qs      |
 |----------------------------------------------------|
