 |--------|------------|
 | ANGLE  |  PHASE FCT |
 |--------|------------|
     0.00   174.51    
     1.00   167.18    
     2.00   147.59    
     3.00   121.44    
     4.00   94.686    
     5.00   71.234    
     6.00   52.536    
     7.00   38.469    
     8.00   28.282    
     9.00   21.098    
    10.00   16.110    
    11.00   12.664    
    12.00   10.276    
    13.00   8.6057    
    14.00   7.4163    
    15.00   6.5474    
    16.00   5.8921    
    17.00   5.3788    
    18.00   4.9611    
    19.00   4.6100    
    20.00   4.3066    
    21.00   4.0376    
    22.00   3.7938    
    23.00   3.5705    
    24.00   3.3644    
    25.00   3.1727    
    26.00   2.9931    
    27.00   2.8242    
    28.00   2.6654    
    29.00   2.5161    
    30.00   2.3752    
    31.00   2.2419    
    32.00   2.1161    
    33.00   1.9976    
    34.00   1.8856    
    35.00   1.7797    
    36.00   1.6798    
    37.00   1.5855    
    38.00   1.4966    
    39.00   1.4126    
    40.00   1.3333    
    41.00   1.2587    
    42.00   1.1883    
    43.00   1.1218    
    44.00   1.0592    
    45.00   1.0002    
    46.00  0.94468    
    47.00  0.89226    
    48.00  0.84292    
    49.00  0.79648    
    50.00  0.75271    
    51.00  0.71146    
    52.00  0.67264    
    53.00  0.63612    
    54.00  0.60169    
    55.00  0.56925    
    56.00  0.53872    
    57.00  0.51000    
    58.00  0.48293    
    59.00  0.45743    
    60.00  0.43343    
    61.00  0.41082    
    62.00  0.38952    
    63.00  0.36947    
    64.00  0.35059    
    65.00  0.33280    
    66.00  0.31603    
    67.00  0.30024    
    68.00  0.28539    
    69.00  0.27139    
    70.00  0.25818    
    71.00  0.24576    
    72.00  0.23407    
    73.00  0.22307    
    74.00  0.21270    
    75.00  0.20293    
    76.00  0.19376    
    77.00  0.18514    
    78.00  0.17702    
    79.00  0.16939    
    80.00  0.16223    
    81.00  0.15550    
    82.00  0.14919    
    83.00  0.14328    
    84.00  0.13774    
    85.00  0.13255    
    86.00  0.12770    
    87.00  0.12317    
    88.00  0.11894    
    89.00  0.11501    
    90.00  0.11135    
    91.00  0.10795    
    92.00  0.10479    
    93.00  0.10187    
    94.00  0.99183E-01
    95.00  0.96702E-01
    96.00  0.94422E-01
    97.00  0.92332E-01
    98.00  0.90423E-01
    99.00  0.88686E-01
   100.00  0.87116E-01
   101.00  0.85700E-01
   102.00  0.84426E-01
   103.00  0.83291E-01
   104.00  0.82293E-01
   105.00  0.81426E-01
   106.00  0.80684E-01
   107.00  0.80063E-01
   108.00  0.79557E-01
   109.00  0.79171E-01
   110.00  0.78911E-01
   111.00  0.78777E-01
   112.00  0.78765E-01
   113.00  0.78886E-01
   114.00  0.79153E-01
   115.00  0.79573E-01
   116.00  0.80155E-01
   117.00  0.80914E-01
   118.00  0.81869E-01
   119.00  0.83039E-01
   120.00  0.84443E-01
   121.00  0.86103E-01
   122.00  0.88040E-01
   123.00  0.90288E-01
   124.00  0.92880E-01
   125.00  0.95840E-01
   126.00  0.99196E-01
   127.00  0.10299    
   128.00  0.10725    
   129.00  0.11200    
   130.00  0.11727    
   131.00  0.12310    
   132.00  0.12951    
   133.00  0.13648    
   134.00  0.14402    
   135.00  0.15215    
   136.00  0.16080    
   137.00  0.16993    
   138.00  0.17947    
   139.00  0.18934    
   140.00  0.19938    
   141.00  0.20946    
   142.00  0.21943    
   143.00  0.22910    
   144.00  0.23824    
   145.00  0.24665    
   146.00  0.25417    
   147.00  0.26058    
   148.00  0.26573    
   149.00  0.26952    
   150.00  0.27193    
   151.00  0.27297    
   152.00  0.27276    
   153.00  0.27151    
   154.00  0.26950    
   155.00  0.26708    
   156.00  0.26474    
   157.00  0.26300    
   158.00  0.26249    
   159.00  0.26393    
   160.00  0.26822    
   161.00  0.27632    
   162.00  0.28914    
   163.00  0.30763    
   164.00  0.33236    
   165.00  0.36310    
   166.00  0.39847    
   167.00  0.43555    
   168.00  0.46956    
   169.00  0.49431    
   170.00  0.50386    
   171.00  0.49459    
   172.00  0.46737    
   173.00  0.42961    
   174.00  0.39490    
   175.00  0.37976    
   176.00  0.39969    
   177.00  0.46297    
   178.00  0.55873    
   179.00  0.64943    
   180.00  0.68715    
 |--------|------------|
0.436000     micron = Wavelength
 2.36686     = Extinction efficiency (Q)
 2.36686     = Scattering efficiency (Qs)
 0.00000     = Absorption efficiency (Qa)
 18.2876     = Lidar ratio
 2.43399     micron^2 = <b> = Average surface area per particle
 5.76090     microns^2 = Extinction cross section (C)
 5.76090     microns^2 = Scattering cross section (Cs)
 0.00000     microns^2 = Absorption cross section (Ca)
 |----------------------------------------------------|
 | COMMENTAIRES:                                      |
 |----------------------------------------------------|
 |   -Cross section / <b> should = efficiency         |
 |    is independant of the normalisation of dN/dx    |
 |   -The integral of the phase fct / 4 pi over all   |
 |    directions (solid angle) = 1.                   |
 |   -The volume coefficient (k) is equal to C * N    |
 |      = cross section * Number density              |
 |      typical units: [um^2]*[particles/cm^3] =      |
 |      [10^-3 km-1]                                  |
 |      N = M/(d*4/3*pi*r^3) where d is the density   |
 |      of particle, M is the mass per unit volume    |
 |      and 4/3*pi*r^3 is the average volume  of a    |
 |      particle.                                     |
 |      typical units:  M -> [ug/m^3], d -> [g/cm^3]  |
 |                      r -> [um]                     |
 |      Lidar ratio= 4 pi Qe / phase_fct(180)*Qs      |
 |----------------------------------------------------|
