 |--------|------------|
 | ANGLE  |  PHASE FCT |
 |--------|------------|
     0.00   10.452    
     1.00   10.440    
     2.00   10.404    
     3.00   10.344    
     4.00   10.261    
     5.00   10.157    
     6.00   10.031    
     7.00   9.8847    
     8.00   9.7199    
     9.00   9.5379    
    10.00   9.3402    
    11.00   9.1283    
    12.00   8.9040    
    13.00   8.6688    
    14.00   8.4246    
    15.00   8.1729    
    16.00   7.9153    
    17.00   7.6533    
    18.00   7.3885    
    19.00   7.1221    
    20.00   6.8556    
    21.00   6.5899    
    22.00   6.3264    
    23.00   6.0658    
    24.00   5.8091    
    25.00   5.5570    
    26.00   5.3102    
    27.00   5.0693    
    28.00   4.8348    
    29.00   4.6070    
    30.00   4.3863    
    31.00   4.1729    
    32.00   3.9670    
    33.00   3.7687    
    34.00   3.5780    
    35.00   3.3950    
    36.00   3.2196    
    37.00   3.0518    
    38.00   2.8915    
    39.00   2.7384    
    40.00   2.5925    
    41.00   2.4536    
    42.00   2.3215    
    43.00   2.1960    
    44.00   2.0768    
    45.00   1.9637    
    46.00   1.8565    
    47.00   1.7550    
    48.00   1.6590    
    49.00   1.5682    
    50.00   1.4823    
    51.00   1.4011    
    52.00   1.3245    
    53.00   1.2522    
    54.00   1.1840    
    55.00   1.1196    
    56.00   1.0589    
    57.00   1.0018    
    58.00  0.94789    
    59.00  0.89715    
    60.00  0.84936    
    61.00  0.80436    
    62.00  0.76200    
    63.00  0.72212    
    64.00  0.68459    
    65.00  0.64927    
    66.00  0.61603    
    67.00  0.58475    
    68.00  0.55533    
    69.00  0.52763    
    70.00  0.50158    
    71.00  0.47706    
    72.00  0.45399    
    73.00  0.43228    
    74.00  0.41185    
    75.00  0.39262    
    76.00  0.37452    
    77.00  0.35748    
    78.00  0.34144    
    79.00  0.32633    
    80.00  0.31211    
    81.00  0.29872    
    82.00  0.28611    
    83.00  0.27423    
    84.00  0.26303    
    85.00  0.25249    
    86.00  0.24255    
    87.00  0.23319    
    88.00  0.22437    
    89.00  0.21605    
    90.00  0.20822    
    91.00  0.20083    
    92.00  0.19387    
    93.00  0.18731    
    94.00  0.18112    
    95.00  0.17529    
    96.00  0.16980    
    97.00  0.16462    
    98.00  0.15975    
    99.00  0.15516    
   100.00  0.15083    
   101.00  0.14677    
   102.00  0.14294    
   103.00  0.13934    
   104.00  0.13596    
   105.00  0.13278    
   106.00  0.12980    
   107.00  0.12701    
   108.00  0.12439    
   109.00  0.12194    
   110.00  0.11966    
   111.00  0.11753    
   112.00  0.11555    
   113.00  0.11370    
   114.00  0.11200    
   115.00  0.11042    
   116.00  0.10897    
   117.00  0.10764    
   118.00  0.10643    
   119.00  0.10532    
   120.00  0.10433    
   121.00  0.10344    
   122.00  0.10265    
   123.00  0.10196    
   124.00  0.10136    
   125.00  0.10085    
   126.00  0.10044    
   127.00  0.10011    
   128.00  0.99869E-01
   129.00  0.99709E-01
   130.00  0.99629E-01
   131.00  0.99629E-01
   132.00  0.99706E-01
   133.00  0.99859E-01
   134.00  0.10009    
   135.00  0.10038    
   136.00  0.10075    
   137.00  0.10119    
   138.00  0.10170    
   139.00  0.10227    
   140.00  0.10291    
   141.00  0.10361    
   142.00  0.10438    
   143.00  0.10520    
   144.00  0.10609    
   145.00  0.10703    
   146.00  0.10803    
   147.00  0.10909    
   148.00  0.11021    
   149.00  0.11137    
   150.00  0.11259    
   151.00  0.11386    
   152.00  0.11518    
   153.00  0.11655    
   154.00  0.11797    
   155.00  0.11943    
   156.00  0.12094    
   157.00  0.12249    
   158.00  0.12407    
   159.00  0.12570    
   160.00  0.12736    
   161.00  0.12905    
   162.00  0.13076    
   163.00  0.13249    
   164.00  0.13424    
   165.00  0.13600    
   166.00  0.13775    
   167.00  0.13948    
   168.00  0.14119    
   169.00  0.14286    
   170.00  0.14448    
   171.00  0.14602    
   172.00  0.14747    
   173.00  0.14880    
   174.00  0.15001    
   175.00  0.15108    
   176.00  0.15197    
   177.00  0.15269    
   178.00  0.15321    
   179.00  0.15353    
   180.00  0.15363    
 |--------|------------|
0.750000     micron = Wavelength
 1.13229     = Extinction efficiency (Q)
 1.13229     = Scattering efficiency (Qs)
 0.00000     = Absorption efficiency (Qa)
 81.7948     = Lidar ratio
0.126656     micron^2 = <b> = Average surface area per particle
0.143411     microns^2 = Extinction cross section (C)
0.143411     microns^2 = Scattering cross section (Cs)
 0.00000     microns^2 = Absorption cross section (Ca)
 |----------------------------------------------------|
 | COMMENTAIRES:                                      |
 |----------------------------------------------------|
 |   -Cross section / <b> should = efficiency         |
 |    is independant of the normalisation of dN/dx    |
 |   -The integral of the phase fct / 4 pi over all   |
 |    directions (solid angle) = 1.                   |
 |   -The volume coefficient (k) is equal to C * N    |
 |      = cross section * Number density              |
 |      typical units: [um^2]*[particles/cm^3] =      |
 |      [10^-3 km-1]                                  |
 |      N = M/(d*4/3*pi*r^3) where d is the density   |
 |      of particle, M is the mass per unit volume    |
 |      and 4/3*pi*r^3 is the average volume  of a    |
 |      particle.                                     |
 |      typical units:  M -> [ug/m^3], d -> [g/cm^3]  |
 |                      r -> [um]                     |
 |      Lidar ratio= 4 pi Qe / phase_fct(180)*Qs      |
 |----------------------------------------------------|
