 |--------|------------|
 | ANGLE  |  PHASE FCT |
 |--------|------------|
     0.00   38.665    
     1.00   38.412    
     2.00   37.671    
     3.00   36.487    
     4.00   34.932    
     5.00   33.088    
     6.00   31.043    
     7.00   28.879    
     8.00   26.669    
     9.00   24.475    
    10.00   22.343    
    11.00   20.308    
    12.00   18.395    
    13.00   16.617    
    14.00   14.981    
    15.00   13.487    
    16.00   12.132    
    17.00   10.909    
    18.00   9.8108    
    19.00   8.8269    
    20.00   7.9478    
    21.00   7.1637    
    22.00   6.4649    
    23.00   5.8427    
    24.00   5.2886    
    25.00   4.7950    
    26.00   4.3550    
    27.00   3.9625    
    28.00   3.6118    
    29.00   3.2981    
    30.00   3.0170    
    31.00   2.7647    
    32.00   2.5378    
    33.00   2.3335    
    34.00   2.1491    
    35.00   1.9824    
    36.00   1.8314    
    37.00   1.6943    
    38.00   1.5696    
    39.00   1.4561    
    40.00   1.3525    
    41.00   1.2578    
    42.00   1.1712    
    43.00   1.0917    
    44.00   1.0188    
    45.00  0.95172    
    46.00  0.88998    
    47.00  0.83308    
    48.00  0.78056    
    49.00  0.73205    
    50.00  0.68718    
    51.00  0.64565    
    52.00  0.60716    
    53.00  0.57147    
    54.00  0.53834    
    55.00  0.50756    
    56.00  0.47894    
    57.00  0.45232    
    58.00  0.42753    
    59.00  0.40443    
    60.00  0.38289    
    61.00  0.36281    
    62.00  0.34405    
    63.00  0.32654    
    64.00  0.31018    
    65.00  0.29488    
    66.00  0.28057    
    67.00  0.26718    
    68.00  0.25464    
    69.00  0.24290    
    70.00  0.23189    
    71.00  0.22158    
    72.00  0.21191    
    73.00  0.20283    
    74.00  0.19432    
    75.00  0.18633    
    76.00  0.17883    
    77.00  0.17178    
    78.00  0.16517    
    79.00  0.15895    
    80.00  0.15311    
    81.00  0.14762    
    82.00  0.14246    
    83.00  0.13761    
    84.00  0.13305    
    85.00  0.12877    
    86.00  0.12475    
    87.00  0.12097    
    88.00  0.11742    
    89.00  0.11408    
    90.00  0.11096    
    91.00  0.10802    
    92.00  0.10527    
    93.00  0.10270    
    94.00  0.10029    
    95.00  0.98037E-01
    96.00  0.95936E-01
    97.00  0.93978E-01
    98.00  0.92158E-01
    99.00  0.90470E-01
   100.00  0.88908E-01
   101.00  0.87468E-01
   102.00  0.86146E-01
   103.00  0.84937E-01
   104.00  0.83837E-01
   105.00  0.82845E-01
   106.00  0.81957E-01
   107.00  0.81171E-01
   108.00  0.80485E-01
   109.00  0.79898E-01
   110.00  0.79407E-01
   111.00  0.79012E-01
   112.00  0.78712E-01
   113.00  0.78506E-01
   114.00  0.78394E-01
   115.00  0.78376E-01
   116.00  0.78453E-01
   117.00  0.78625E-01
   118.00  0.78892E-01
   119.00  0.79256E-01
   120.00  0.79717E-01
   121.00  0.80277E-01
   122.00  0.80938E-01
   123.00  0.81700E-01
   124.00  0.82565E-01
   125.00  0.83535E-01
   126.00  0.84613E-01
   127.00  0.85799E-01
   128.00  0.87097E-01
   129.00  0.88507E-01
   130.00  0.90031E-01
   131.00  0.91672E-01
   132.00  0.93431E-01
   133.00  0.95309E-01
   134.00  0.97308E-01
   135.00  0.99428E-01
   136.00  0.10167    
   137.00  0.10404    
   138.00  0.10653    
   139.00  0.10915    
   140.00  0.11189    
   141.00  0.11475    
   142.00  0.11774    
   143.00  0.12085    
   144.00  0.12408    
   145.00  0.12743    
   146.00  0.13090    
   147.00  0.13449    
   148.00  0.13819    
   149.00  0.14200    
   150.00  0.14591    
   151.00  0.14990    
   152.00  0.15396    
   153.00  0.15806    
   154.00  0.16216    
   155.00  0.16620    
   156.00  0.17011    
   157.00  0.17379    
   158.00  0.17710    
   159.00  0.17989    
   160.00  0.18197    
   161.00  0.18310    
   162.00  0.18305    
   163.00  0.18158    
   164.00  0.17845    
   165.00  0.17354    
   166.00  0.16681    
   167.00  0.15841    
   168.00  0.14870    
   169.00  0.13832    
   170.00  0.12810    
   171.00  0.11908    
   172.00  0.11231    
   173.00  0.10870    
   174.00  0.10876    
   175.00  0.11241    
   176.00  0.11890    
   177.00  0.12683    
   178.00  0.13441    
   179.00  0.13986    
   180.00  0.14184    
 |--------|------------|
0.546000     micron = Wavelength
 3.12953     = Extinction efficiency (Q)
 3.12953     = Scattering efficiency (Qs)
 0.00000     = Absorption efficiency (Qa)
 88.5978     = Lidar ratio
0.625716     micron^2 = <b> = Average surface area per particle
 1.95820     microns^2 = Extinction cross section (C)
 1.95820     microns^2 = Scattering cross section (Cs)
 0.00000     microns^2 = Absorption cross section (Ca)
 |----------------------------------------------------|
 | COMMENTAIRES:                                      |
 |----------------------------------------------------|
 |   -Cross section / <b> should = efficiency         |
 |    is independant of the normalisation of dN/dx    |
 |   -The integral of the phase fct / 4 pi over all   |
 |    directions (solid angle) = 1.                   |
 |   -The volume coefficient (k) is equal to C * N    |
 |      = cross section * Number density              |
 |      typical units: [um^2]*[particles/cm^3] =      |
 |      [10^-3 km-1]                                  |
 |      N = M/(d*4/3*pi*r^3) where d is the density   |
 |      of particle, M is the mass per unit volume    |
 |      and 4/3*pi*r^3 is the average volume  of a    |
 |      particle.                                     |
 |      typical units:  M -> [ug/m^3], d -> [g/cm^3]  |
 |                      r -> [um]                     |
 |      Lidar ratio= 4 pi Qe / phase_fct(180)*Qs      |
 |----------------------------------------------------|
