 |--------|------------|
 | ANGLE  |  PHASE FCT |
 |--------|------------|
     0.00   59.256    
     1.00   58.492    
     2.00   56.298    
     3.00   52.931    
     4.00   48.746    
     5.00   44.110    
     6.00   39.347    
     7.00   34.710    
     8.00   30.368    
     9.00   26.423    
    10.00   22.918    
    11.00   19.859    
    12.00   17.222    
    13.00   14.971    
    14.00   13.060    
    15.00   11.445    
    16.00   10.082    
    17.00   8.9294    
    18.00   7.9531    
    19.00   7.1228    
    20.00   6.4129    
    21.00   5.8020    
    22.00   5.2730    
    23.00   4.8115    
    24.00   4.4060    
    25.00   4.0471    
    26.00   3.7276    
    27.00   3.4411    
    28.00   3.1830    
    29.00   2.9492    
    30.00   2.7365    
    31.00   2.5424    
    32.00   2.3645    
    33.00   2.2012    
    34.00   2.0508    
    35.00   1.9122    
    36.00   1.7841    
    37.00   1.6657    
    38.00   1.5561    
    39.00   1.4545    
    40.00   1.3603    
    41.00   1.2729    
    42.00   1.1917    
    43.00   1.1164    
    44.00   1.0463    
    45.00  0.98122    
    46.00  0.92068    
    47.00  0.86436    
    48.00  0.81194    
    49.00  0.76315    
    50.00  0.71772    
    51.00  0.67539    
    52.00  0.63595    
    53.00  0.59919    
    54.00  0.56491    
    55.00  0.53293    
    56.00  0.50308    
    57.00  0.47522    
    58.00  0.44921    
    59.00  0.42491    
    60.00  0.40220    
    61.00  0.38098    
    62.00  0.36113    
    63.00  0.34256    
    64.00  0.32519    
    65.00  0.30893    
    66.00  0.29371    
    67.00  0.27945    
    68.00  0.26610    
    69.00  0.25358    
    70.00  0.24185    
    71.00  0.23086    
    72.00  0.22055    
    73.00  0.21089    
    74.00  0.20182    
    75.00  0.19332    
    76.00  0.18534    
    77.00  0.17786    
    78.00  0.17084    
    79.00  0.16426    
    80.00  0.15809    
    81.00  0.15229    
    82.00  0.14686    
    83.00  0.14177    
    84.00  0.13700    
    85.00  0.13252    
    86.00  0.12834    
    87.00  0.12441    
    88.00  0.12075    
    89.00  0.11732    
    90.00  0.11411    
    91.00  0.11112    
    92.00  0.10833    
    93.00  0.10574    
    94.00  0.10332    
    95.00  0.10109    
    96.00  0.99016E-01
    97.00  0.97104E-01
    98.00  0.95345E-01
    99.00  0.93733E-01
   100.00  0.92262E-01
   101.00  0.90927E-01
   102.00  0.89726E-01
   103.00  0.88652E-01
   104.00  0.87704E-01
   105.00  0.86880E-01
   106.00  0.86176E-01
   107.00  0.85592E-01
   108.00  0.85127E-01
   109.00  0.84779E-01
   110.00  0.84549E-01
   111.00  0.84437E-01
   112.00  0.84445E-01
   113.00  0.84573E-01
   114.00  0.84823E-01
   115.00  0.85198E-01
   116.00  0.85698E-01
   117.00  0.86329E-01
   118.00  0.87092E-01
   119.00  0.87991E-01
   120.00  0.89030E-01
   121.00  0.90213E-01
   122.00  0.91544E-01
   123.00  0.93025E-01
   124.00  0.94662E-01
   125.00  0.96458E-01
   126.00  0.98416E-01
   127.00  0.10054    
   128.00  0.10283    
   129.00  0.10529    
   130.00  0.10792    
   131.00  0.11071    
   132.00  0.11368    
   133.00  0.11680    
   134.00  0.12008    
   135.00  0.12351    
   136.00  0.12708    
   137.00  0.13077    
   138.00  0.13457    
   139.00  0.13846    
   140.00  0.14242    
   141.00  0.14644    
   142.00  0.15048    
   143.00  0.15453    
   144.00  0.15857    
   145.00  0.16257    
   146.00  0.16652    
   147.00  0.17042    
   148.00  0.17425    
   149.00  0.17803    
   150.00  0.18179    
   151.00  0.18554    
   152.00  0.18936    
   153.00  0.19331    
   154.00  0.19747    
   155.00  0.20193    
   156.00  0.20679    
   157.00  0.21214    
   158.00  0.21803    
   159.00  0.22447    
   160.00  0.23137    
   161.00  0.23852    
   162.00  0.24554    
   163.00  0.25186    
   164.00  0.25672    
   165.00  0.25916    
   166.00  0.25815    
   167.00  0.25275    
   168.00  0.24235    
   169.00  0.22700    
   170.00  0.20767    
   171.00  0.18648    
   172.00  0.16658    
   173.00  0.15170    
   174.00  0.14535    
   175.00  0.14964    
   176.00  0.16433    
   177.00  0.18619    
   178.00  0.20943    
   179.00  0.22718    
   180.00  0.23382    
 |--------|------------|
0.630000     micron = Wavelength
 2.91422     = Extinction efficiency (Q)
 2.91422     = Scattering efficiency (Qs)
 0.00000     = Absorption efficiency (Qa)
 53.7435     = Lidar ratio
 1.56998     micron^2 = <b> = Average surface area per particle
 4.57526     microns^2 = Extinction cross section (C)
 4.57526     microns^2 = Scattering cross section (Cs)
 0.00000     microns^2 = Absorption cross section (Ca)
 |----------------------------------------------------|
 | COMMENTAIRES:                                      |
 |----------------------------------------------------|
 |   -Cross section / <b> should = efficiency         |
 |    is independant of the normalisation of dN/dx    |
 |   -The integral of the phase fct / 4 pi over all   |
 |    directions (solid angle) = 1.                   |
 |   -The volume coefficient (k) is equal to C * N    |
 |      = cross section * Number density              |
 |      typical units: [um^2]*[particles/cm^3] =      |
 |      [10^-3 km-1]                                  |
 |      N = M/(d*4/3*pi*r^3) where d is the density   |
 |      of particle, M is the mass per unit volume    |
 |      and 4/3*pi*r^3 is the average volume  of a    |
 |      particle.                                     |
 |      typical units:  M -> [ug/m^3], d -> [g/cm^3]  |
 |                      r -> [um]                     |
 |      Lidar ratio= 4 pi Qe / phase_fct(180)*Qs      |
 |----------------------------------------------------|
