 |--------|------------|
 | ANGLE  |  PHASE FCT |
 |--------|------------|
     0.00   49.233    
     1.00   48.763    
     2.00   47.398    
     3.00   45.262    
     4.00   42.532    
     5.00   39.405    
     6.00   36.069    
     7.00   32.686    
     8.00   29.383    
     9.00   26.248    
    10.00   23.341    
    11.00   20.691    
    12.00   18.309    
    13.00   16.190    
    14.00   14.321    
    15.00   12.681    
    16.00   11.249    
    17.00   10.001    
    18.00   8.9155    
    19.00   7.9706    
    20.00   7.1475    
    21.00   6.4294    
    22.00   5.8015    
    23.00   5.2507    
    24.00   4.7661    
    25.00   4.3381    
    26.00   3.9588    
    27.00   3.6215    
    28.00   3.3203    
    29.00   3.0504    
    30.00   2.8078    
    31.00   2.5890    
    32.00   2.3910    
    33.00   2.2114    
    34.00   2.0481    
    35.00   1.8992    
    36.00   1.7632    
    37.00   1.6386    
    38.00   1.5244    
    39.00   1.4196    
    40.00   1.3231    
    41.00   1.2343    
    42.00   1.1524    
    43.00   1.0768    
    44.00   1.0069    
    45.00  0.94236    
    46.00  0.88258    
    47.00  0.82722    
    48.00  0.77591    
    49.00  0.72832    
    50.00  0.68414    
    51.00  0.64311    
    52.00  0.60499    
    53.00  0.56954    
    54.00  0.53657    
    55.00  0.50587    
    56.00  0.47729    
    57.00  0.45065    
    58.00  0.42582    
    59.00  0.40267    
    60.00  0.38106    
    61.00  0.36089    
    62.00  0.34205    
    63.00  0.32446    
    64.00  0.30801    
    65.00  0.29263    
    66.00  0.27824    
    67.00  0.26478    
    68.00  0.25218    
    69.00  0.24038    
    70.00  0.22933    
    71.00  0.21898    
    72.00  0.20927    
    73.00  0.20018    
    74.00  0.19165    
    75.00  0.18366    
    76.00  0.17616    
    77.00  0.16912    
    78.00  0.16252    
    79.00  0.15633    
    80.00  0.15052    
    81.00  0.14507    
    82.00  0.13996    
    83.00  0.13516    
    84.00  0.13066    
    85.00  0.12644    
    86.00  0.12249    
    87.00  0.11878    
    88.00  0.11531    
    89.00  0.11207    
    90.00  0.10903    
    91.00  0.10619    
    92.00  0.10354    
    93.00  0.10107    
    94.00  0.98763E-01
    95.00  0.96623E-01
    96.00  0.94637E-01
    97.00  0.92799E-01
    98.00  0.91103E-01
    99.00  0.89541E-01
   100.00  0.88111E-01
   101.00  0.86806E-01
   102.00  0.85624E-01
   103.00  0.84559E-01
   104.00  0.83610E-01
   105.00  0.82773E-01
   106.00  0.82046E-01
   107.00  0.81427E-01
   108.00  0.80914E-01
   109.00  0.80508E-01
   110.00  0.80205E-01
   111.00  0.80007E-01
   112.00  0.79913E-01
   113.00  0.79923E-01
   114.00  0.80038E-01
   115.00  0.80259E-01
   116.00  0.80586E-01
   117.00  0.81022E-01
   118.00  0.81566E-01
   119.00  0.82222E-01
   120.00  0.82991E-01
   121.00  0.83875E-01
   122.00  0.84876E-01
   123.00  0.85996E-01
   124.00  0.87236E-01
   125.00  0.88600E-01
   126.00  0.90088E-01
   127.00  0.91702E-01
   128.00  0.93443E-01
   129.00  0.95311E-01
   130.00  0.97307E-01
   131.00  0.99430E-01
   132.00  0.10168    
   133.00  0.10405    
   134.00  0.10654    
   135.00  0.10915    
   136.00  0.11187    
   137.00  0.11470    
   138.00  0.11762    
   139.00  0.12063    
   140.00  0.12373    
   141.00  0.12689    
   142.00  0.13012    
   143.00  0.13341    
   144.00  0.13674    
   145.00  0.14011    
   146.00  0.14352    
   147.00  0.14697    
   148.00  0.15046    
   149.00  0.15401    
   150.00  0.15761    
   151.00  0.16131    
   152.00  0.16511    
   153.00  0.16904    
   154.00  0.17313    
   155.00  0.17740    
   156.00  0.18186    
   157.00  0.18647    
   158.00  0.19121    
   159.00  0.19595    
   160.00  0.20052    
   161.00  0.20467    
   162.00  0.20805    
   163.00  0.21021    
   164.00  0.21064    
   165.00  0.20878    
   166.00  0.20415    
   167.00  0.19642    
   168.00  0.18559    
   169.00  0.17212    
   170.00  0.15703    
   171.00  0.14193    
   172.00  0.12888    
   173.00  0.12003    
   174.00  0.11711    
   175.00  0.12088    
   176.00  0.13068    
   177.00  0.14424    
   178.00  0.15810    
   179.00  0.16843    
   180.00  0.17225    
 |--------|------------|
0.720000     micron = Wavelength
 3.04767     = Extinction efficiency (Q)
 3.04767     = Scattering efficiency (Qs)
 0.00000     = Absorption efficiency (Qa)
 72.9527     = Lidar ratio
 1.56998     micron^2 = <b> = Average surface area per particle
 4.78477     microns^2 = Extinction cross section (C)
 4.78477     microns^2 = Scattering cross section (Cs)
0.184173E-14 microns^2 = Absorption cross section (Ca)
 |----------------------------------------------------|
 | COMMENTAIRES:                                      |
 |----------------------------------------------------|
 |   -Cross section / <b> should = efficiency         |
 |    is independant of the normalisation of dN/dx    |
 |   -The integral of the phase fct / 4 pi over all   |
 |    directions (solid angle) = 1.                   |
 |   -The volume coefficient (k) is equal to C * N    |
 |      = cross section * Number density              |
 |      typical units: [um^2]*[particles/cm^3] =      |
 |      [10^-3 km-1]                                  |
 |      N = M/(d*4/3*pi*r^3) where d is the density   |
 |      of particle, M is the mass per unit volume    |
 |      and 4/3*pi*r^3 is the average volume  of a    |
 |      particle.                                     |
 |      typical units:  M -> [ug/m^3], d -> [g/cm^3]  |
 |                      r -> [um]                     |
 |      Lidar ratio= 4 pi Qe / phase_fct(180)*Qs      |
 |----------------------------------------------------|
