 |--------|------------|
 | ANGLE  |  PHASE FCT |
 |--------|------------|
     0.00   40.702    
     1.00   40.419    
     2.00   39.588    
     3.00   38.267    
     4.00   36.537    
     5.00   34.497    
     6.00   32.246    
     7.00   29.880    
     8.00   27.480    
     9.00   25.113    
    10.00   22.829    
    11.00   20.664    
    12.00   18.642    
    13.00   16.775    
    14.00   15.068    
    15.00   13.520    
    16.00   12.124    
    17.00   10.871    
    18.00   9.7516    
    19.00   8.7538    
    20.00   7.8662    
    21.00   7.0779    
    22.00   6.3781    
    23.00   5.7570    
    24.00   5.2057    
    25.00   4.7158    
    26.00   4.2802    
    27.00   3.8923    
    28.00   3.5463    
    29.00   3.2372    
    30.00   2.9606    
    31.00   2.7126    
    32.00   2.4896    
    33.00   2.2889    
    34.00   2.1078    
    35.00   1.9441    
    36.00   1.7958    
    37.00   1.6612    
    38.00   1.5388    
    39.00   1.4273    
    40.00   1.3256    
    41.00   1.2326    
    42.00   1.1474    
    43.00   1.0693    
    44.00  0.99761    
    45.00  0.93169    
    46.00  0.87100    
    47.00  0.81505    
    48.00  0.76342    
    49.00  0.71573    
    50.00  0.67163    
    51.00  0.63081    
    52.00  0.59298    
    53.00  0.55791    
    54.00  0.52536    
    55.00  0.49513    
    56.00  0.46703    
    57.00  0.44089    
    58.00  0.41657    
    59.00  0.39391    
    60.00  0.37279    
    61.00  0.35310    
    62.00  0.33472    
    63.00  0.31756    
    64.00  0.30154    
    65.00  0.28657    
    66.00  0.27256    
    67.00  0.25947    
    68.00  0.24721    
    69.00  0.23574    
    70.00  0.22499    
    71.00  0.21492    
    72.00  0.20548    
    73.00  0.19663    
    74.00  0.18833    
    75.00  0.18055    
    76.00  0.17324    
    77.00  0.16639    
    78.00  0.15995    
    79.00  0.15390    
    80.00  0.14823    
    81.00  0.14290    
    82.00  0.13790    
    83.00  0.13319    
    84.00  0.12878    
    85.00  0.12463    
    86.00  0.12074    
    87.00  0.11709    
    88.00  0.11366    
    89.00  0.11045    
    90.00  0.10743    
    91.00  0.10461    
    92.00  0.10197    
    93.00  0.99495E-01
    94.00  0.97184E-01
    95.00  0.95029E-01
    96.00  0.93021E-01
    97.00  0.91153E-01
    98.00  0.89420E-01
    99.00  0.87816E-01
   100.00  0.86335E-01
   101.00  0.84974E-01
   102.00  0.83728E-01
   103.00  0.82593E-01
   104.00  0.81566E-01
   105.00  0.80644E-01
   106.00  0.79824E-01
   107.00  0.79103E-01
   108.00  0.78481E-01
   109.00  0.77956E-01
   110.00  0.77525E-01
   111.00  0.77188E-01
   112.00  0.76945E-01
   113.00  0.76794E-01
   114.00  0.76736E-01
   115.00  0.76770E-01
   116.00  0.76897E-01
   117.00  0.77117E-01
   118.00  0.77431E-01
   119.00  0.77839E-01
   120.00  0.78343E-01
   121.00  0.78944E-01
   122.00  0.79642E-01
   123.00  0.80439E-01
   124.00  0.81337E-01
   125.00  0.82337E-01
   126.00  0.83439E-01
   127.00  0.84647E-01
   128.00  0.85960E-01
   129.00  0.87380E-01
   130.00  0.88908E-01
   131.00  0.90545E-01
   132.00  0.92291E-01
   133.00  0.94147E-01
   134.00  0.96114E-01
   135.00  0.98189E-01
   136.00  0.10037    
   137.00  0.10267    
   138.00  0.10507    
   139.00  0.10757    
   140.00  0.11018    
   141.00  0.11289    
   142.00  0.11570    
   143.00  0.11861    
   144.00  0.12161    
   145.00  0.12471    
   146.00  0.12791    
   147.00  0.13120    
   148.00  0.13458    
   149.00  0.13805    
   150.00  0.14161    
   151.00  0.14525    
   152.00  0.14897    
   153.00  0.15274    
   154.00  0.15655    
   155.00  0.16035    
   156.00  0.16409    
   157.00  0.16768    
   158.00  0.17102    
   159.00  0.17395    
   160.00  0.17631    
   161.00  0.17785    
   162.00  0.17835    
   163.00  0.17751    
   164.00  0.17509    
   165.00  0.17089    
   166.00  0.16479    
   167.00  0.15687    
   168.00  0.14742    
   169.00  0.13701    
   170.00  0.12649    
   171.00  0.11692    
   172.00  0.10947    
   173.00  0.10518    
   174.00  0.10469    
   175.00  0.10808    
   176.00  0.11461    
   177.00  0.12284    
   178.00  0.13083    
   179.00  0.13663    
   180.00  0.13874    
 |--------|------------|
0.640000     micron = Wavelength
 3.12003     = Extinction efficiency (Q)
 3.12003     = Scattering efficiency (Qs)
 0.00000     = Absorption efficiency (Qa)
 90.5726     = Lidar ratio
0.917849     micron^2 = <b> = Average surface area per particle
 2.86372     microns^2 = Extinction cross section (C)
 2.86372     microns^2 = Scattering cross section (Cs)
0.727596E-15 microns^2 = Absorption cross section (Ca)
 |----------------------------------------------------|
 | COMMENTAIRES:                                      |
 |----------------------------------------------------|
 |   -Cross section / <b> should = efficiency         |
 |    is independant of the normalisation of dN/dx    |
 |   -The integral of the phase fct / 4 pi over all   |
 |    directions (solid angle) = 1.                   |
 |   -The volume coefficient (k) is equal to C * N    |
 |      = cross section * Number density              |
 |      typical units: [um^2]*[particles/cm^3] =      |
 |      [10^-3 km-1]                                  |
 |      N = M/(d*4/3*pi*r^3) where d is the density   |
 |      of particle, M is the mass per unit volume    |
 |      and 4/3*pi*r^3 is the average volume  of a    |
 |      particle.                                     |
 |      typical units:  M -> [ug/m^3], d -> [g/cm^3]  |
 |                      r -> [um]                     |
 |      Lidar ratio= 4 pi Qe / phase_fct(180)*Qs      |
 |----------------------------------------------------|
