 |--------|------------|
 | ANGLE  |  PHASE FCT |
 |--------|------------|
     0.00   34.206    
     1.00   34.018    
     2.00   33.466    
     3.00   32.577    
     4.00   31.398    
     5.00   29.982    
     6.00   28.387    
     7.00   26.673    
     8.00   24.891    
     9.00   23.089    
    10.00   21.307    
    11.00   19.575    
    12.00   17.916    
    13.00   16.346    
    14.00   14.876    
    15.00   13.511    
    16.00   12.252    
    17.00   11.099    
    18.00   10.047    
    19.00   9.0919    
    20.00   8.2276    
    21.00   7.4474    
    22.00   6.7447    
    23.00   6.1127    
    24.00   5.5450    
    25.00   5.0353    
    26.00   4.5780    
    27.00   4.1677    
    28.00   3.7993    
    29.00   3.4685    
    30.00   3.1712    
    31.00   2.9038    
    32.00   2.6630    
    33.00   2.4460    
    34.00   2.2500    
    35.00   2.0728    
    36.00   1.9125    
    37.00   1.7671    
    38.00   1.6351    
    39.00   1.5150    
    40.00   1.4057    
    41.00   1.3059    
    42.00   1.2148    
    43.00   1.1314    
    44.00   1.0550    
    45.00  0.98493    
    46.00  0.92052    
    47.00  0.86126    
    48.00  0.80667    
    49.00  0.75631    
    50.00  0.70982    
    51.00  0.66683    
    52.00  0.62705    
    53.00  0.59020    
    54.00  0.55602    
    55.00  0.52430    
    56.00  0.49483    
    57.00  0.46743    
    58.00  0.44193    
    59.00  0.41818    
    60.00  0.39604    
    61.00  0.37540    
    62.00  0.35613    
    63.00  0.33814    
    64.00  0.32133    
    65.00  0.30561    
    66.00  0.29090    
    67.00  0.27713    
    68.00  0.26424    
    69.00  0.25216    
    70.00  0.24083    
    71.00  0.23021    
    72.00  0.22024    
    73.00  0.21089    
    74.00  0.20210    
    75.00  0.19385    
    76.00  0.18610    
    77.00  0.17882    
    78.00  0.17197    
    79.00  0.16553    
    80.00  0.15947    
    81.00  0.15377    
    82.00  0.14841    
    83.00  0.14337    
    84.00  0.13862    
    85.00  0.13415    
    86.00  0.12995    
    87.00  0.12600    
    88.00  0.12228    
    89.00  0.11878    
    90.00  0.11550    
    91.00  0.11241    
    92.00  0.10951    
    93.00  0.10679    
    94.00  0.10423    
    95.00  0.10184    
    96.00  0.99605E-01
    97.00  0.97515E-01
    98.00  0.95566E-01
    99.00  0.93750E-01
   100.00  0.92064E-01
   101.00  0.90502E-01
   102.00  0.89060E-01
   103.00  0.87733E-01
   104.00  0.86519E-01
   105.00  0.85413E-01
   106.00  0.84412E-01
   107.00  0.83515E-01
   108.00  0.82719E-01
   109.00  0.82022E-01
   110.00  0.81423E-01
   111.00  0.80919E-01
   112.00  0.80511E-01
   113.00  0.80198E-01
   114.00  0.79978E-01
   115.00  0.79853E-01
   116.00  0.79821E-01
   117.00  0.79884E-01
   118.00  0.80041E-01
   119.00  0.80294E-01
   120.00  0.80644E-01
   121.00  0.81092E-01
   122.00  0.81640E-01
   123.00  0.82289E-01
   124.00  0.83040E-01
   125.00  0.83897E-01
   126.00  0.84862E-01
   127.00  0.85936E-01
   128.00  0.87123E-01
   129.00  0.88425E-01
   130.00  0.89845E-01
   131.00  0.91385E-01
   132.00  0.93049E-01
   133.00  0.94841E-01
   134.00  0.96761E-01
   135.00  0.98815E-01
   136.00  0.10100    
   137.00  0.10333    
   138.00  0.10580    
   139.00  0.10841    
   140.00  0.11116    
   141.00  0.11407    
   142.00  0.11712    
   143.00  0.12031    
   144.00  0.12365    
   145.00  0.12714    
   146.00  0.13076    
   147.00  0.13452    
   148.00  0.13839    
   149.00  0.14237    
   150.00  0.14643    
   151.00  0.15055    
   152.00  0.15469    
   153.00  0.15880    
   154.00  0.16281    
   155.00  0.16665    
   156.00  0.17021    
   157.00  0.17339    
   158.00  0.17604    
   159.00  0.17800    
   160.00  0.17910    
   161.00  0.17915    
   162.00  0.17799    
   163.00  0.17546    
   164.00  0.17148    
   165.00  0.16603    
   166.00  0.15923    
   167.00  0.15134    
   168.00  0.14278    
   169.00  0.13415    
   170.00  0.12616    
   171.00  0.11960    
   172.00  0.11518    
   173.00  0.11343    
   174.00  0.11456    
   175.00  0.11832    
   176.00  0.12400    
   177.00  0.13049    
   178.00  0.13647    
   179.00  0.14067    
   180.00  0.14218    
 |--------|------------|
0.500000     micron = Wavelength
 3.13677     = Extinction efficiency (Q)
 3.13677     = Scattering efficiency (Qs)
 0.00000     = Absorption efficiency (Qa)
 88.3839     = Lidar ratio
0.437500     micron^2 = <b> = Average surface area per particle
 1.37234     microns^2 = Extinction cross section (C)
 1.37234     microns^2 = Scattering cross section (Cs)
0.222045E-15 microns^2 = Absorption cross section (Ca)
 |----------------------------------------------------|
 | COMMENTAIRES:                                      |
 |----------------------------------------------------|
 |   -Cross section / <b> should = efficiency         |
 |    is independant of the normalisation of dN/dx    |
 |   -The integral of the phase fct / 4 pi over all   |
 |    directions (solid angle) = 1.                   |
 |   -The volume coefficient (k) is equal to C * N    |
 |      = cross section * Number density              |
 |      typical units: [um^2]*[particles/cm^3] =      |
 |      [10^-3 km-1]                                  |
 |      N = M/(d*4/3*pi*r^3) where d is the density   |
 |      of particle, M is the mass per unit volume    |
 |      and 4/3*pi*r^3 is the average volume  of a    |
 |      particle.                                     |
 |      typical units:  M -> [ug/m^3], d -> [g/cm^3]  |
 |                      r -> [um]                     |
 |      Lidar ratio= 4 pi Qe / phase_fct(180)*Qs      |
 |----------------------------------------------------|
