 |--------|------------|
 | ANGLE  |  PHASE FCT |
 |--------|------------|
     0.00   89.665    
     1.00   87.700    
     2.00   82.191    
     3.00   74.128    
     4.00   64.738    
     5.00   55.120    
     6.00   46.059    
     7.00   38.002    
     8.00   31.131    
     9.00   25.451    
    10.00   20.858    
    11.00   17.204    
    12.00   14.328    
    13.00   12.079    
    14.00   10.322    
    15.00   8.9462    
    16.00   7.8621    
    17.00   6.9986    
    18.00   6.3013    
    19.00   5.7287    
    20.00   5.2499    
    21.00   4.8419    
    22.00   4.4878    
    23.00   4.1753    
    24.00   3.8954    
    25.00   3.6417    
    26.00   3.4094    
    27.00   3.1951    
    28.00   2.9962    
    29.00   2.8109    
    30.00   2.6377    
    31.00   2.4756    
    32.00   2.3236    
    33.00   2.1811    
    34.00   2.0474    
    35.00   1.9220    
    36.00   1.8044    
    37.00   1.6940    
    38.00   1.5906    
    39.00   1.4937    
    40.00   1.4029    
    41.00   1.3179    
    42.00   1.2383    
    43.00   1.1638    
    44.00   1.0941    
    45.00   1.0289    
    46.00  0.96785    
    47.00  0.91075    
    48.00  0.85735    
    49.00  0.80738    
    50.00  0.76064    
    51.00  0.71692    
    52.00  0.67601    
    53.00  0.63772    
    54.00  0.60189    
    55.00  0.56835    
    56.00  0.53695    
    57.00  0.50755    
    58.00  0.48001    
    59.00  0.45421    
    60.00  0.43004    
    61.00  0.40739    
    62.00  0.38615    
    63.00  0.36624    
    64.00  0.34757    
    65.00  0.33006    
    66.00  0.31363    
    67.00  0.29821    
    68.00  0.28374    
    69.00  0.27017    
    70.00  0.25742    
    71.00  0.24546    
    72.00  0.23423    
    73.00  0.22369    
    74.00  0.21379    
    75.00  0.20450    
    76.00  0.19578    
    77.00  0.18760    
    78.00  0.17992    
    79.00  0.17272    
    80.00  0.16596    
    81.00  0.15962    
    82.00  0.15369    
    83.00  0.14812    
    84.00  0.14291    
    85.00  0.13804    
    86.00  0.13348    
    87.00  0.12922    
    88.00  0.12524    
    89.00  0.12153    
    90.00  0.11807    
    91.00  0.11486    
    92.00  0.11187    
    93.00  0.10909    
    94.00  0.10653    
    95.00  0.10416    
    96.00  0.10197    
    97.00  0.99968E-01
    98.00  0.98134E-01
    99.00  0.96464E-01
   100.00  0.94952E-01
   101.00  0.93593E-01
   102.00  0.92382E-01
   103.00  0.91314E-01
   104.00  0.90388E-01
   105.00  0.89599E-01
   106.00  0.88947E-01
   107.00  0.88430E-01
   108.00  0.88049E-01
   109.00  0.87802E-01
   110.00  0.87694E-01
   111.00  0.87724E-01
   112.00  0.87896E-01
   113.00  0.88214E-01
   114.00  0.88683E-01
   115.00  0.89308E-01
   116.00  0.90095E-01
   117.00  0.91051E-01
   118.00  0.92184E-01
   119.00  0.93502E-01
   120.00  0.95016E-01
   121.00  0.96733E-01
   122.00  0.98663E-01
   123.00  0.10082    
   124.00  0.10321    
   125.00  0.10584    
   126.00  0.10873    
   127.00  0.11188    
   128.00  0.11530    
   129.00  0.11899    
   130.00  0.12297    
   131.00  0.12722    
   132.00  0.13175    
   133.00  0.13655    
   134.00  0.14160    
   135.00  0.14690    
   136.00  0.15241    
   137.00  0.15810    
   138.00  0.16393    
   139.00  0.16985    
   140.00  0.17582    
   141.00  0.18177    
   142.00  0.18763    
   143.00  0.19334    
   144.00  0.19881    
   145.00  0.20399    
   146.00  0.20881    
   147.00  0.21321    
   148.00  0.21716    
   149.00  0.22063    
   150.00  0.22364    
   151.00  0.22623    
   152.00  0.22850    
   153.00  0.23058    
   154.00  0.23266    
   155.00  0.23498    
   156.00  0.23785    
   157.00  0.24161    
   158.00  0.24665    
   159.00  0.25336    
   160.00  0.26209    
   161.00  0.27310    
   162.00  0.28640    
   163.00  0.30168    
   164.00  0.31817    
   165.00  0.33446    
   166.00  0.34852    
   167.00  0.35780    
   168.00  0.35959    
   169.00  0.35167    
   170.00  0.33321    
   171.00  0.30575    
   172.00  0.27379    
   173.00  0.24460    
   174.00  0.22691    
   175.00  0.22831    
   176.00  0.25215    
   177.00  0.29479    
   178.00  0.34473    
   179.00  0.38518    
   180.00  0.40077    
 |--------|------------|
0.616000     micron = Wavelength
 2.63183     = Extinction efficiency (Q)
 2.63183     = Scattering efficiency (Qs)
 0.00000     = Absorption efficiency (Qa)
 31.3557     = Lidar ratio
 2.43673     micron^2 = <b> = Average surface area per particle
 6.41304     microns^2 = Extinction cross section (C)
 6.41304     microns^2 = Scattering cross section (Cs)
0.134810E-14 microns^2 = Absorption cross section (Ca)
 |----------------------------------------------------|
 | COMMENTAIRES:                                      |
 |----------------------------------------------------|
 |   -Cross section / <b> should = efficiency         |
 |    is independant of the normalisation of dN/dx    |
 |   -The integral of the phase fct / 4 pi over all   |
 |    directions (solid angle) = 1.                   |
 |   -The volume coefficient (k) is equal to C * N    |
 |      = cross section * Number density              |
 |      typical units: [um^2]*[particles/cm^3] =      |
 |      [10^-3 km-1]                                  |
 |      N = M/(d*4/3*pi*r^3) where d is the density   |
 |      of particle, M is the mass per unit volume    |
 |      and 4/3*pi*r^3 is the average volume  of a    |
 |      particle.                                     |
 |      typical units:  M -> [ug/m^3], d -> [g/cm^3]  |
 |                      r -> [um]                     |
 |      Lidar ratio= 4 pi Qe / phase_fct(180)*Qs      |
 |----------------------------------------------------|
