 |--------|------------|
 | ANGLE  |  PHASE FCT |
 |--------|------------|
     0.00   15.332    
     1.00   15.304    
     2.00   15.222    
     3.00   15.087    
     4.00   14.900    
     5.00   14.665    
     6.00   14.384    
     7.00   14.063    
     8.00   13.705    
     9.00   13.315    
    10.00   12.897    
    11.00   12.457    
    12.00   11.999    
    13.00   11.527    
    14.00   11.047    
    15.00   10.561    
    16.00   10.075    
    17.00   9.5904    
    18.00   9.1112    
    19.00   8.6399    
    20.00   8.1789    
    21.00   7.7298    
    22.00   7.2944    
    23.00   6.8739    
    24.00   6.4693    
    25.00   6.0813    
    26.00   5.7105    
    27.00   5.3569    
    28.00   5.0208    
    29.00   4.7020    
    30.00   4.4003    
    31.00   4.1154    
    32.00   3.8469    
    33.00   3.5942    
    34.00   3.3568    
    35.00   3.1341    
    36.00   2.9254    
    37.00   2.7302    
    38.00   2.5477    
    39.00   2.3772    
    40.00   2.2182    
    41.00   2.0700    
    42.00   1.9319    
    43.00   1.8033    
    44.00   1.6837    
    45.00   1.5724    
    46.00   1.4689    
    47.00   1.3728    
    48.00   1.2834    
    49.00   1.2004    
    50.00   1.1233    
    51.00   1.0517    
    52.00  0.98526    
    53.00  0.92351    
    54.00  0.86616    
    55.00  0.81290    
    56.00  0.76342    
    57.00  0.71745    
    58.00  0.67473    
    59.00  0.63502    
    60.00  0.59809    
    61.00  0.56376    
    62.00  0.53181    
    63.00  0.50208    
    64.00  0.47441    
    65.00  0.44863    
    66.00  0.42461    
    67.00  0.40222    
    68.00  0.38135    
    69.00  0.36187    
    70.00  0.34369    
    71.00  0.32671    
    72.00  0.31085    
    73.00  0.29603    
    74.00  0.28216    
    75.00  0.26919    
    76.00  0.25705    
    77.00  0.24569    
    78.00  0.23504    
    79.00  0.22505    
    80.00  0.21569    
    81.00  0.20691    
    82.00  0.19867    
    83.00  0.19093    
    84.00  0.18367    
    85.00  0.17684    
    86.00  0.17042    
    87.00  0.16439    
    88.00  0.15872    
    89.00  0.15339    
    90.00  0.14837    
    91.00  0.14365    
    92.00  0.13921    
    93.00  0.13503    
    94.00  0.13110    
    95.00  0.12740    
    96.00  0.12393    
    97.00  0.12066    
    98.00  0.11758    
    99.00  0.11469    
   100.00  0.11198    
   101.00  0.10944    
   102.00  0.10705    
   103.00  0.10482    
   104.00  0.10272    
   105.00  0.10077    
   106.00  0.98946E-01
   107.00  0.97248E-01
   108.00  0.95670E-01
   109.00  0.94206E-01
   110.00  0.92854E-01
   111.00  0.91608E-01
   112.00  0.90464E-01
   113.00  0.89420E-01
   114.00  0.88472E-01
   115.00  0.87616E-01
   116.00  0.86851E-01
   117.00  0.86173E-01
   118.00  0.85580E-01
   119.00  0.85070E-01
   120.00  0.84642E-01
   121.00  0.84292E-01
   122.00  0.84020E-01
   123.00  0.83823E-01
   124.00  0.83700E-01
   125.00  0.83651E-01
   126.00  0.83672E-01
   127.00  0.83764E-01
   128.00  0.83923E-01
   129.00  0.84150E-01
   130.00  0.84443E-01
   131.00  0.84800E-01
   132.00  0.85220E-01
   133.00  0.85702E-01
   134.00  0.86242E-01
   135.00  0.86840E-01
   136.00  0.87495E-01
   137.00  0.88202E-01
   138.00  0.88960E-01
   139.00  0.89767E-01
   140.00  0.90619E-01
   141.00  0.91513E-01
   142.00  0.92447E-01
   143.00  0.93416E-01
   144.00  0.94416E-01
   145.00  0.95444E-01
   146.00  0.96496E-01
   147.00  0.97566E-01
   148.00  0.98651E-01
   149.00  0.99747E-01
   150.00  0.10085    
   151.00  0.10195    
   152.00  0.10306    
   153.00  0.10416    
   154.00  0.10525    
   155.00  0.10634    
   156.00  0.10743    
   157.00  0.10852    
   158.00  0.10961    
   159.00  0.11071    
   160.00  0.11183    
   161.00  0.11298    
   162.00  0.11417    
   163.00  0.11542    
   164.00  0.11675    
   165.00  0.11815    
   166.00  0.11965    
   167.00  0.12126    
   168.00  0.12297    
   169.00  0.12478    
   170.00  0.12668    
   171.00  0.12864    
   172.00  0.13063    
   173.00  0.13260    
   174.00  0.13450    
   175.00  0.13626    
   176.00  0.13781    
   177.00  0.13910    
   178.00  0.14007    
   179.00  0.14067    
   180.00  0.14087    
 |--------|------------|
0.546000     micron = Wavelength
 1.94070     = Extinction efficiency (Q)
 1.94070     = Scattering efficiency (Qs)
 0.00000     = Absorption efficiency (Qa)
 89.2034     = Lidar ratio
0.126656     micron^2 = <b> = Average surface area per particle
0.245801     microns^2 = Extinction cross section (C)
0.245801     microns^2 = Scattering cross section (Cs)
 0.00000     microns^2 = Absorption cross section (Ca)
 |----------------------------------------------------|
 | COMMENTAIRES:                                      |
 |----------------------------------------------------|
 |   -Cross section / <b> should = efficiency         |
 |    is independant of the normalisation of dN/dx    |
 |   -The integral of the phase fct / 4 pi over all   |
 |    directions (solid angle) = 1.                   |
 |   -The volume coefficient (k) is equal to C * N    |
 |      = cross section * Number density              |
 |      typical units: [um^2]*[particles/cm^3] =      |
 |      [10^-3 km-1]                                  |
 |      N = M/(d*4/3*pi*r^3) where d is the density   |
 |      of particle, M is the mass per unit volume    |
 |      and 4/3*pi*r^3 is the average volume  of a    |
 |      particle.                                     |
 |      typical units:  M -> [ug/m^3], d -> [g/cm^3]  |
 |                      r -> [um]                     |
 |      Lidar ratio= 4 pi Qe / phase_fct(180)*Qs      |
 |----------------------------------------------------|
