 |--------|------------|
 | ANGLE  |  PHASE FCT |
 |--------|------------|
     0.00   22.000    
     1.00   21.939    
     2.00   21.755    
     3.00   21.455    
     4.00   21.045    
     5.00   20.534    
     6.00   19.936    
     7.00   19.261    
     8.00   18.524    
     9.00   17.737    
    10.00   16.915    
    11.00   16.069    
    12.00   15.211    
    13.00   14.350    
    14.00   13.497    
    15.00   12.659    
    16.00   11.842    
    17.00   11.052    
    18.00   10.292    
    19.00   9.5664    
    20.00   8.8764    
    21.00   8.2236    
    22.00   7.6086    
    23.00   7.0313    
    24.00   6.4914    
    25.00   5.9878    
    26.00   5.5196    
    27.00   5.0852    
    28.00   4.6831    
    29.00   4.3117    
    30.00   3.9691    
    31.00   3.6536    
    32.00   3.3635    
    33.00   3.0970    
    34.00   2.8524    
    35.00   2.6281    
    36.00   2.4225    
    37.00   2.2342    
    38.00   2.0618    
    39.00   1.9039    
    40.00   1.7594    
    41.00   1.6272    
    42.00   1.5062    
    43.00   1.3954    
    44.00   1.2939    
    45.00   1.2009    
    46.00   1.1158    
    47.00   1.0377    
    48.00  0.96605    
    49.00  0.90030    
    50.00  0.83993    
    51.00  0.78445    
    52.00  0.73342    
    53.00  0.68646    
    54.00  0.64320    
    55.00  0.60333    
    56.00  0.56654    
    57.00  0.53258    
    58.00  0.50119    
    59.00  0.47216    
    60.00  0.44529    
    61.00  0.42040    
    62.00  0.39731    
    63.00  0.37588    
    64.00  0.35598    
    65.00  0.33748    
    66.00  0.32026    
    67.00  0.30423    
    68.00  0.28928    
    69.00  0.27535    
    70.00  0.26234    
    71.00  0.25019    
    72.00  0.23883    
    73.00  0.22820    
    74.00  0.21826    
    75.00  0.20894    
    76.00  0.20021    
    77.00  0.19203    
    78.00  0.18434    
    79.00  0.17713    
    80.00  0.17036    
    81.00  0.16399    
    82.00  0.15801    
    83.00  0.15239    
    84.00  0.14709    
    85.00  0.14211    
    86.00  0.13743    
    87.00  0.13302    
    88.00  0.12887    
    89.00  0.12496    
    90.00  0.12128    
    91.00  0.11781    
    92.00  0.11455    
    93.00  0.11148    
    94.00  0.10860    
    95.00  0.10588    
    96.00  0.10333    
    97.00  0.10094    
    98.00  0.98694E-01
    99.00  0.96589E-01
   100.00  0.94618E-01
   101.00  0.92775E-01
   102.00  0.91055E-01
   103.00  0.89453E-01
   104.00  0.87964E-01
   105.00  0.86585E-01
   106.00  0.85310E-01
   107.00  0.84137E-01
   108.00  0.83062E-01
   109.00  0.82082E-01
   110.00  0.81196E-01
   111.00  0.80399E-01
   112.00  0.79690E-01
   113.00  0.79068E-01
   114.00  0.78531E-01
   115.00  0.78077E-01
   116.00  0.77705E-01
   117.00  0.77414E-01
   118.00  0.77204E-01
   119.00  0.77073E-01
   120.00  0.77021E-01
   121.00  0.77049E-01
   122.00  0.77155E-01
   123.00  0.77340E-01
   124.00  0.77603E-01
   125.00  0.77946E-01
   126.00  0.78367E-01
   127.00  0.78868E-01
   128.00  0.79449E-01
   129.00  0.80110E-01
   130.00  0.80851E-01
   131.00  0.81672E-01
   132.00  0.82574E-01
   133.00  0.83556E-01
   134.00  0.84617E-01
   135.00  0.85758E-01
   136.00  0.86977E-01
   137.00  0.88272E-01
   138.00  0.89641E-01
   139.00  0.91081E-01
   140.00  0.92590E-01
   141.00  0.94161E-01
   142.00  0.95790E-01
   143.00  0.97469E-01
   144.00  0.99190E-01
   145.00  0.10094    
   146.00  0.10272    
   147.00  0.10450    
   148.00  0.10627    
   149.00  0.10802    
   150.00  0.10973    
   151.00  0.11136    
   152.00  0.11291    
   153.00  0.11435    
   154.00  0.11565    
   155.00  0.11678    
   156.00  0.11772    
   157.00  0.11846    
   158.00  0.11897    
   159.00  0.11924    
   160.00  0.11927    
   161.00  0.11907    
   162.00  0.11867    
   163.00  0.11809    
   164.00  0.11740    
   165.00  0.11666    
   166.00  0.11597    
   167.00  0.11542    
   168.00  0.11512    
   169.00  0.11516    
   170.00  0.11563    
   171.00  0.11658    
   172.00  0.11802    
   173.00  0.11990    
   174.00  0.12214    
   175.00  0.12457    
   176.00  0.12701    
   177.00  0.12921    
   178.00  0.13098    
   179.00  0.13212    
   180.00  0.13252    
 |--------|------------|
0.480000     micron = Wavelength
 2.64262     = Extinction efficiency (Q)
 2.64262     = Scattering efficiency (Qs)
 0.00000     = Absorption efficiency (Qa)
 94.8262     = Lidar ratio
0.180223     micron^2 = <b> = Average surface area per particle
0.476261     microns^2 = Extinction cross section (C)
0.476261     microns^2 = Scattering cross section (Cs)
 0.00000     microns^2 = Absorption cross section (Ca)
 |----------------------------------------------------|
 | COMMENTAIRES:                                      |
 |----------------------------------------------------|
 |   -Cross section / <b> should = efficiency         |
 |    is independant of the normalisation of dN/dx    |
 |   -The integral of the phase fct / 4 pi over all   |
 |    directions (solid angle) = 1.                   |
 |   -The volume coefficient (k) is equal to C * N    |
 |      = cross section * Number density              |
 |      typical units: [um^2]*[particles/cm^3] =      |
 |      [10^-3 km-1]                                  |
 |      N = M/(d*4/3*pi*r^3) where d is the density   |
 |      of particle, M is the mass per unit volume    |
 |      and 4/3*pi*r^3 is the average volume  of a    |
 |      particle.                                     |
 |      typical units:  M -> [ug/m^3], d -> [g/cm^3]  |
 |                      r -> [um]                     |
 |      Lidar ratio= 4 pi Qe / phase_fct(180)*Qs      |
 |----------------------------------------------------|
