 |--------|------------|
 | ANGLE  |  PHASE FCT |
 |--------|------------|
     0.00   44.833    
     1.00   44.449    
     2.00   43.328    
     3.00   41.564    
     4.00   39.290    
     5.00   36.658    
     6.00   33.816    
     7.00   30.896    
     8.00   28.007    
     9.00   25.229    
    10.00   22.617    
    11.00   20.204    
    12.00   18.007    
    13.00   16.028    
    14.00   14.261    
    15.00   12.694    
    16.00   11.311    
    17.00   10.095    
    18.00   9.0270    
    19.00   8.0910    
    20.00   7.2704    
    21.00   6.5504    
    22.00   5.9179    
    23.00   5.3610    
    24.00   4.8696    
    25.00   4.4347    
    26.00   4.0488    
    27.00   3.7051    
    28.00   3.3982    
    29.00   3.1232    
    30.00   2.8760    
    31.00   2.6532    
    32.00   2.4517    
    33.00   2.2689    
    34.00   2.1028    
    35.00   1.9515    
    36.00   1.8132    
    37.00   1.6867    
    38.00   1.5707    
    39.00   1.4641    
    40.00   1.3661    
    41.00   1.2758    
    42.00   1.1925    
    43.00   1.1156    
    44.00   1.0445    
    45.00  0.97868    
    46.00  0.91770    
    47.00  0.86117    
    48.00  0.80873    
    49.00  0.76003    
    50.00  0.71477    
    51.00  0.67270    
    52.00  0.63355    
    53.00  0.59711    
    54.00  0.56317    
    55.00  0.53154    
    56.00  0.50204    
    57.00  0.47453    
    58.00  0.44885    
    59.00  0.42487    
    60.00  0.40247    
    61.00  0.38154    
    62.00  0.36196    
    63.00  0.34366    
    64.00  0.32652    
    65.00  0.31049    
    66.00  0.29547    
    67.00  0.28141    
    68.00  0.26823    
    69.00  0.25587    
    70.00  0.24429    
    71.00  0.23343    
    72.00  0.22323    
    73.00  0.21367    
    74.00  0.20469    
    75.00  0.19627    
    76.00  0.18835    
    77.00  0.18092    
    78.00  0.17394    
    79.00  0.16738    
    80.00  0.16121    
    81.00  0.15543    
    82.00  0.14999    
    83.00  0.14487    
    84.00  0.14007    
    85.00  0.13556    
    86.00  0.13132    
    87.00  0.12735    
    88.00  0.12361    
    89.00  0.12011    
    90.00  0.11683    
    91.00  0.11375    
    92.00  0.11086    
    93.00  0.10817    
    94.00  0.10565    
    95.00  0.10329    
    96.00  0.10110    
    97.00  0.99065E-01
    98.00  0.97173E-01
    99.00  0.95423E-01
   100.00  0.93808E-01
   101.00  0.92325E-01
   102.00  0.90968E-01
   103.00  0.89733E-01
   104.00  0.88618E-01
   105.00  0.87619E-01
   106.00  0.86735E-01
   107.00  0.85963E-01
   108.00  0.85301E-01
   109.00  0.84748E-01
   110.00  0.84303E-01
   111.00  0.83966E-01
   112.00  0.83736E-01
   113.00  0.83614E-01
   114.00  0.83600E-01
   115.00  0.83696E-01
   116.00  0.83901E-01
   117.00  0.84218E-01
   118.00  0.84649E-01
   119.00  0.85194E-01
   120.00  0.85857E-01
   121.00  0.86639E-01
   122.00  0.87544E-01
   123.00  0.88574E-01
   124.00  0.89732E-01
   125.00  0.91020E-01
   126.00  0.92443E-01
   127.00  0.94002E-01
   128.00  0.95699E-01
   129.00  0.97539E-01
   130.00  0.99524E-01
   131.00  0.10165    
   132.00  0.10393    
   133.00  0.10636    
   134.00  0.10894    
   135.00  0.11167    
   136.00  0.11455    
   137.00  0.11758    
   138.00  0.12075    
   139.00  0.12407    
   140.00  0.12753    
   141.00  0.13113    
   142.00  0.13487    
   143.00  0.13874    
   144.00  0.14273    
   145.00  0.14686    
   146.00  0.15111    
   147.00  0.15548    
   148.00  0.15999    
   149.00  0.16462    
   150.00  0.16939    
   151.00  0.17429    
   152.00  0.17934    
   153.00  0.18453    
   154.00  0.18984    
   155.00  0.19526    
   156.00  0.20074    
   157.00  0.20618    
   158.00  0.21148    
   159.00  0.21645    
   160.00  0.22085    
   161.00  0.22435    
   162.00  0.22656    
   163.00  0.22703    
   164.00  0.22529    
   165.00  0.22092    
   166.00  0.21360    
   167.00  0.20327    
   168.00  0.19021    
   169.00  0.17515    
   170.00  0.15934    
   171.00  0.14443    
   172.00  0.13235    
   173.00  0.12491    
   174.00  0.12343    
   175.00  0.12821    
   176.00  0.13830    
   177.00  0.15144    
   178.00  0.16445    
   179.00  0.17399    
   180.00  0.17748    
 |--------|------------|
0.480000     micron = Wavelength
 3.07379     = Extinction efficiency (Q)
 3.07379     = Scattering efficiency (Qs)
 0.00000     = Absorption efficiency (Qa)
 70.8032     = Lidar ratio
0.625715     micron^2 = <b> = Average surface area per particle
 1.92332     microns^2 = Extinction cross section (C)
 1.92332     microns^2 = Scattering cross section (Cs)
0.818545E-15 microns^2 = Absorption cross section (Ca)
 |----------------------------------------------------|
 | COMMENTAIRES:                                      |
 |----------------------------------------------------|
 |   -Cross section / <b> should = efficiency         |
 |    is independant of the normalisation of dN/dx    |
 |   -The integral of the phase fct / 4 pi over all   |
 |    directions (solid angle) = 1.                   |
 |   -The volume coefficient (k) is equal to C * N    |
 |      = cross section * Number density              |
 |      typical units: [um^2]*[particles/cm^3] =      |
 |      [10^-3 km-1]                                  |
 |      N = M/(d*4/3*pi*r^3) where d is the density   |
 |      of particle, M is the mass per unit volume    |
 |      and 4/3*pi*r^3 is the average volume  of a    |
 |      particle.                                     |
 |      typical units:  M -> [ug/m^3], d -> [g/cm^3]  |
 |                      r -> [um]                     |
 |      Lidar ratio= 4 pi Qe / phase_fct(180)*Qs      |
 |----------------------------------------------------|
