 |--------|------------|
 | ANGLE  |  PHASE FCT |
 |--------|------------|
     0.00   33.906    
     1.00   33.735    
     2.00   33.232    
     3.00   32.419    
     4.00   31.335    
     5.00   30.024    
     6.00   28.537    
     7.00   26.925    
     8.00   25.234    
     9.00   23.508    
    10.00   21.785    
    11.00   20.094    
    12.00   18.459    
    13.00   16.897    
    14.00   15.422    
    15.00   14.041    
    16.00   12.758    
    17.00   11.573    
    18.00   10.485    
    19.00   9.4908    
    20.00   8.5861    
    21.00   7.7656    
    22.00   7.0233    
    23.00   6.3534    
    24.00   5.7499    
    25.00   5.2070    
    26.00   4.7191    
    27.00   4.2810    
    28.00   3.8876    
    29.00   3.5346    
    30.00   3.2177    
    31.00   2.9331    
    32.00   2.6774    
    33.00   2.4476    
    34.00   2.2407    
    35.00   2.0544    
    36.00   1.8864    
    37.00   1.7348    
    38.00   1.5977    
    39.00   1.4736    
    40.00   1.3611    
    41.00   1.2591    
    42.00   1.1663    
    43.00   1.0818    
    44.00   1.0048    
    45.00  0.93455    
    46.00  0.87031    
    47.00  0.81150    
    48.00  0.75758    
    49.00  0.70809    
    50.00  0.66260    
    51.00  0.62074    
    52.00  0.58217    
    53.00  0.54658    
    54.00  0.51371    
    55.00  0.48333    
    56.00  0.45520    
    57.00  0.42914    
    58.00  0.40496    
    59.00  0.38253    
    60.00  0.36168    
    61.00  0.34229    
    62.00  0.32425    
    63.00  0.30744    
    64.00  0.29177    
    65.00  0.27715    
    66.00  0.26351    
    67.00  0.25077    
    68.00  0.23886    
    69.00  0.22772    
    70.00  0.21729    
    71.00  0.20753    
    72.00  0.19839    
    73.00  0.18983    
    74.00  0.18180    
    75.00  0.17426    
    76.00  0.16720    
    77.00  0.16056    
    78.00  0.15434    
    79.00  0.14849    
    80.00  0.14299    
    81.00  0.13783    
    82.00  0.13298    
    83.00  0.12842    
    84.00  0.12413    
    85.00  0.12011    
    86.00  0.11632    
    87.00  0.11276    
    88.00  0.10942    
    89.00  0.10628    
    90.00  0.10333    
    91.00  0.10056    
    92.00  0.97968E-01
    93.00  0.95534E-01
    94.00  0.93255E-01
    95.00  0.91121E-01
    96.00  0.89126E-01
    97.00  0.87265E-01
    98.00  0.85530E-01
    99.00  0.83915E-01
   100.00  0.82417E-01
   101.00  0.81030E-01
   102.00  0.79750E-01
   103.00  0.78573E-01
   104.00  0.77496E-01
   105.00  0.76514E-01
   106.00  0.75627E-01
   107.00  0.74830E-01
   108.00  0.74121E-01
   109.00  0.73499E-01
   110.00  0.72961E-01
   111.00  0.72507E-01
   112.00  0.72134E-01
   113.00  0.71843E-01
   114.00  0.71631E-01
   115.00  0.71498E-01
   116.00  0.71444E-01
   117.00  0.71468E-01
   118.00  0.71572E-01
   119.00  0.71753E-01
   120.00  0.72013E-01
   121.00  0.72352E-01
   122.00  0.72771E-01
   123.00  0.73270E-01
   124.00  0.73849E-01
   125.00  0.74510E-01
   126.00  0.75254E-01
   127.00  0.76080E-01
   128.00  0.76992E-01
   129.00  0.77988E-01
   130.00  0.79071E-01
   131.00  0.80241E-01
   132.00  0.81499E-01
   133.00  0.82846E-01
   134.00  0.84283E-01
   135.00  0.85810E-01
   136.00  0.87429E-01
   137.00  0.89138E-01
   138.00  0.90939E-01
   139.00  0.92832E-01
   140.00  0.94815E-01
   141.00  0.96889E-01
   142.00  0.99050E-01
   143.00  0.10130    
   144.00  0.10363    
   145.00  0.10604    
   146.00  0.10853    
   147.00  0.11108    
   148.00  0.11370    
   149.00  0.11636    
   150.00  0.11905    
   151.00  0.12176    
   152.00  0.12444    
   153.00  0.12709    
   154.00  0.12964    
   155.00  0.13205    
   156.00  0.13427    
   157.00  0.13620    
   158.00  0.13778    
   159.00  0.13889    
   160.00  0.13944    
   161.00  0.13930    
   162.00  0.13839    
   163.00  0.13660    
   164.00  0.13390    
   165.00  0.13027    
   166.00  0.12579    
   167.00  0.12064    
   168.00  0.11508    
   169.00  0.10950    
   170.00  0.10436    
   171.00  0.10017    
   172.00  0.97390E-01
   173.00  0.96372E-01
   174.00  0.97244E-01
   175.00  0.99844E-01
   176.00  0.10370    
   177.00  0.10808    
   178.00  0.11210    
   179.00  0.11491    
   180.00  0.11593    
 |--------|------------|
0.760000     micron = Wavelength
 3.05872     = Extinction efficiency (Q)
 3.05872     = Scattering efficiency (Qs)
 0.00000     = Absorption efficiency (Qa)
 108.398     = Lidar ratio
0.917850     micron^2 = <b> = Average surface area per particle
 2.80744     microns^2 = Extinction cross section (C)
 2.80744     microns^2 = Scattering cross section (Cs)
 0.00000     microns^2 = Absorption cross section (Ca)
 |----------------------------------------------------|
 | COMMENTAIRES:                                      |
 |----------------------------------------------------|
 |   -Cross section / <b> should = efficiency         |
 |    is independant of the normalisation of dN/dx    |
 |   -The integral of the phase fct / 4 pi over all   |
 |    directions (solid angle) = 1.                   |
 |   -The volume coefficient (k) is equal to C * N    |
 |      = cross section * Number density              |
 |      typical units: [um^2]*[particles/cm^3] =      |
 |      [10^-3 km-1]                                  |
 |      N = M/(d*4/3*pi*r^3) where d is the density   |
 |      of particle, M is the mass per unit volume    |
 |      and 4/3*pi*r^3 is the average volume  of a    |
 |      particle.                                     |
 |      typical units:  M -> [ug/m^3], d -> [g/cm^3]  |
 |                      r -> [um]                     |
 |      Lidar ratio= 4 pi Qe / phase_fct(180)*Qs      |
 |----------------------------------------------------|
