 |--------|------------|
 | ANGLE  |  PHASE FCT |
 |--------|------------|
     0.00   32.720    
     1.00   32.561    
     2.00   32.092    
     3.00   31.335    
     4.00   30.323    
     5.00   29.097    
     6.00   27.703    
     7.00   26.186    
     8.00   24.592    
     9.00   22.960    
    10.00   21.324    
    11.00   19.714    
    12.00   18.151    
    13.00   16.655    
    14.00   15.236    
    15.00   13.903    
    16.00   12.661    
    17.00   11.510    
    18.00   10.450    
    19.00   9.4790    
    20.00   8.5924    
    21.00   7.7859    
    22.00   7.0543    
    23.00   6.3923    
    24.00   5.7944    
    25.00   5.2552    
    26.00   4.7696    
    27.00   4.3325    
    28.00   3.9393    
    29.00   3.5856    
    30.00   3.2676    
    31.00   2.9816    
    32.00   2.7241    
    33.00   2.4924    
    34.00   2.2835    
    35.00   2.0952    
    36.00   1.9251    
    37.00   1.7714    
    38.00   1.6324    
    39.00   1.5064    
    40.00   1.3922    
    41.00   1.2884    
    42.00   1.1940    
    43.00   1.1080    
    44.00   1.0296    
    45.00  0.95793    
    46.00  0.89242    
    47.00  0.83242    
    48.00  0.77739    
    49.00  0.72686    
    50.00  0.68040    
    51.00  0.63763    
    52.00  0.59821    
    53.00  0.56182    
    54.00  0.52821    
    55.00  0.49712    
    56.00  0.46834    
    57.00  0.44166    
    58.00  0.41691    
    59.00  0.39392    
    60.00  0.37256    
    61.00  0.35269    
    62.00  0.33419    
    63.00  0.31695    
    64.00  0.30088    
    65.00  0.28588    
    66.00  0.27188    
    67.00  0.25879    
    68.00  0.24655    
    69.00  0.23511    
    70.00  0.22439    
    71.00  0.21436    
    72.00  0.20496    
    73.00  0.19614    
    74.00  0.18787    
    75.00  0.18012    
    76.00  0.17284    
    77.00  0.16600    
    78.00  0.15958    
    79.00  0.15355    
    80.00  0.14788    
    81.00  0.14255    
    82.00  0.13754    
    83.00  0.13283    
    84.00  0.12840    
    85.00  0.12423    
    86.00  0.12032    
    87.00  0.11663    
    88.00  0.11317    
    89.00  0.10991    
    90.00  0.10686    
    91.00  0.10398    
    92.00  0.10129    
    93.00  0.98759E-01
    94.00  0.96387E-01
    95.00  0.94167E-01
    96.00  0.92089E-01
    97.00  0.90148E-01
    98.00  0.88337E-01
    99.00  0.86650E-01
   100.00  0.85083E-01
   101.00  0.83630E-01
   102.00  0.82287E-01
   103.00  0.81051E-01
   104.00  0.79917E-01
   105.00  0.78882E-01
   106.00  0.77943E-01
   107.00  0.77098E-01
   108.00  0.76344E-01
   109.00  0.75679E-01
   110.00  0.75102E-01
   111.00  0.74610E-01
   112.00  0.74203E-01
   113.00  0.73880E-01
   114.00  0.73639E-01
   115.00  0.73480E-01
   116.00  0.73403E-01
   117.00  0.73407E-01
   118.00  0.73492E-01
   119.00  0.73660E-01
   120.00  0.73909E-01
   121.00  0.74241E-01
   122.00  0.74656E-01
   123.00  0.75155E-01
   124.00  0.75738E-01
   125.00  0.76408E-01
   126.00  0.77165E-01
   127.00  0.78010E-01
   128.00  0.78945E-01
   129.00  0.79972E-01
   130.00  0.81090E-01
   131.00  0.82303E-01
   132.00  0.83612E-01
   133.00  0.85017E-01
   134.00  0.86520E-01
   135.00  0.88124E-01
   136.00  0.89827E-01
   137.00  0.91631E-01
   138.00  0.93539E-01
   139.00  0.95548E-01
   140.00  0.97660E-01
   141.00  0.99873E-01
   142.00  0.10219    
   143.00  0.10460    
   144.00  0.10711    
   145.00  0.10970    
   146.00  0.11239    
   147.00  0.11514    
   148.00  0.11797    
   149.00  0.12084    
   150.00  0.12374    
   151.00  0.12665    
   152.00  0.12954    
   153.00  0.13236    
   154.00  0.13507    
   155.00  0.13761    
   156.00  0.13991    
   157.00  0.14190    
   158.00  0.14347    
   159.00  0.14453    
   160.00  0.14496    
   161.00  0.14467    
   162.00  0.14354    
   163.00  0.14151    
   164.00  0.13854    
   165.00  0.13466    
   166.00  0.12996    
   167.00  0.12464    
   168.00  0.11899    
   169.00  0.11342    
   170.00  0.10840    
   171.00  0.10440    
   172.00  0.10188    
   173.00  0.10115    
   174.00  0.10228    
   175.00  0.10508    
   176.00  0.10907    
   177.00  0.11350    
   178.00  0.11753    
   179.00  0.12034    
   180.00  0.12134    
 |--------|------------|
0.640000     micron = Wavelength
 3.06527     = Extinction efficiency (Q)
 3.06527     = Scattering efficiency (Qs)
 0.00000     = Absorption efficiency (Qa)
 103.562     = Lidar ratio
0.625715     micron^2 = <b> = Average surface area per particle
 1.91798     microns^2 = Extinction cross section (C)
 1.91798     microns^2 = Scattering cross section (Cs)
 0.00000     microns^2 = Absorption cross section (Ca)
 |----------------------------------------------------|
 | COMMENTAIRES:                                      |
 |----------------------------------------------------|
 |   -Cross section / <b> should = efficiency         |
 |    is independant of the normalisation of dN/dx    |
 |   -The integral of the phase fct / 4 pi over all   |
 |    directions (solid angle) = 1.                   |
 |   -The volume coefficient (k) is equal to C * N    |
 |      = cross section * Number density              |
 |      typical units: [um^2]*[particles/cm^3] =      |
 |      [10^-3 km-1]                                  |
 |      N = M/(d*4/3*pi*r^3) where d is the density   |
 |      of particle, M is the mass per unit volume    |
 |      and 4/3*pi*r^3 is the average volume  of a    |
 |      particle.                                     |
 |      typical units:  M -> [ug/m^3], d -> [g/cm^3]  |
 |                      r -> [um]                     |
 |      Lidar ratio= 4 pi Qe / phase_fct(180)*Qs      |
 |----------------------------------------------------|
