 |--------|------------|
 | ANGLE  |  PHASE FCT |
 |--------|------------|
     0.00   14.595    
     1.00   14.571    
     2.00   14.497    
     3.00   14.375    
     4.00   14.207    
     5.00   13.996    
     6.00   13.743    
     7.00   13.453    
     8.00   13.129    
     9.00   12.775    
    10.00   12.395    
    11.00   11.994    
    12.00   11.575    
    13.00   11.143    
    14.00   10.701    
    15.00   10.253    
    16.00   9.8032    
    17.00   9.3537    
    18.00   8.9076    
    19.00   8.4673    
    20.00   8.0350    
    21.00   7.6126    
    22.00   7.2016    
    23.00   6.8034    
    24.00   6.4189    
    25.00   6.0489    
    26.00   5.6940    
    27.00   5.3545    
    28.00   5.0307    
    29.00   4.7225    
    30.00   4.4299    
    31.00   4.1526    
    32.00   3.8904    
    33.00   3.6428    
    34.00   3.4095    
    35.00   3.1900    
    36.00   2.9837    
    37.00   2.7900    
    38.00   2.6084    
    39.00   2.4384    
    40.00   2.2793    
    41.00   2.1305    
    42.00   1.9916    
    43.00   1.8619    
    44.00   1.7408    
    45.00   1.6280    
    46.00   1.5228    
    47.00   1.4249    
    48.00   1.3336    
    49.00   1.2487    
    50.00   1.1696    
    51.00   1.0960    
    52.00   1.0276    
    53.00  0.96386    
    54.00  0.90459    
    55.00  0.84944    
    56.00  0.79813    
    57.00  0.75038    
    58.00  0.70594    
    59.00  0.66457    
    60.00  0.62606    
    61.00  0.59021    
    62.00  0.55681    
    63.00  0.52569    
    64.00  0.49670    
    65.00  0.46967    
    66.00  0.44446    
    67.00  0.42094    
    68.00  0.39900    
    69.00  0.37851    
    70.00  0.35938    
    71.00  0.34151    
    72.00  0.32480    
    73.00  0.30918    
    74.00  0.29457    
    75.00  0.28089    
    76.00  0.26809    
    77.00  0.25609    
    78.00  0.24486    
    79.00  0.23432    
    80.00  0.22445    
    81.00  0.21518    
    82.00  0.20648    
    83.00  0.19831    
    84.00  0.19065    
    85.00  0.18344    
    86.00  0.17667    
    87.00  0.17031    
    88.00  0.16432    
    89.00  0.15869    
    90.00  0.15340    
    91.00  0.14842    
    92.00  0.14374    
    93.00  0.13933    
    94.00  0.13518    
    95.00  0.13128    
    96.00  0.12761    
    97.00  0.12416    
    98.00  0.12091    
    99.00  0.11786    
   100.00  0.11500    
   101.00  0.11231    
   102.00  0.10979    
   103.00  0.10742    
   104.00  0.10521    
   105.00  0.10313    
   106.00  0.10120    
   107.00  0.99393E-01
   108.00  0.97712E-01
   109.00  0.96152E-01
   110.00  0.94706E-01
   111.00  0.93370E-01
   112.00  0.92140E-01
   113.00  0.91012E-01
   114.00  0.89983E-01
   115.00  0.89049E-01
   116.00  0.88207E-01
   117.00  0.87455E-01
   118.00  0.86789E-01
   119.00  0.86208E-01
   120.00  0.85710E-01
   121.00  0.85291E-01
   122.00  0.84950E-01
   123.00  0.84686E-01
   124.00  0.84496E-01
   125.00  0.84379E-01
   126.00  0.84333E-01
   127.00  0.84358E-01
   128.00  0.84450E-01
   129.00  0.84610E-01
   130.00  0.84835E-01
   131.00  0.85124E-01
   132.00  0.85475E-01
   133.00  0.85887E-01
   134.00  0.86358E-01
   135.00  0.86887E-01
   136.00  0.87471E-01
   137.00  0.88109E-01
   138.00  0.88798E-01
   139.00  0.89536E-01
   140.00  0.90321E-01
   141.00  0.91151E-01
   142.00  0.92021E-01
   143.00  0.92930E-01
   144.00  0.93875E-01
   145.00  0.94852E-01
   146.00  0.95857E-01
   147.00  0.96889E-01
   148.00  0.97944E-01
   149.00  0.99017E-01
   150.00  0.10011    
   151.00  0.10121    
   152.00  0.10233    
   153.00  0.10346    
   154.00  0.10460    
   155.00  0.10575    
   156.00  0.10691    
   157.00  0.10809    
   158.00  0.10928    
   159.00  0.11051    
   160.00  0.11176    
   161.00  0.11305    
   162.00  0.11440    
   163.00  0.11580    
   164.00  0.11726    
   165.00  0.11880    
   166.00  0.12043    
   167.00  0.12213    
   168.00  0.12391    
   169.00  0.12577    
   170.00  0.12767    
   171.00  0.12960    
   172.00  0.13153    
   173.00  0.13341    
   174.00  0.13520    
   175.00  0.13683    
   176.00  0.13827    
   177.00  0.13945    
   178.00  0.14033    
   179.00  0.14087    
   180.00  0.14106    
 |--------|------------|
0.570000     micron = Wavelength
 1.81740     = Extinction efficiency (Q)
 1.81740     = Scattering efficiency (Qs)
 0.00000     = Absorption efficiency (Qa)
 89.0880     = Lidar ratio
0.126655     micron^2 = <b> = Average surface area per particle
0.230183     microns^2 = Extinction cross section (C)
0.230183     microns^2 = Scattering cross section (Cs)
 0.00000     microns^2 = Absorption cross section (Ca)
 |----------------------------------------------------|
 | COMMENTAIRES:                                      |
 |----------------------------------------------------|
 |   -Cross section / <b> should = efficiency         |
 |    is independant of the normalisation of dN/dx    |
 |   -The integral of the phase fct / 4 pi over all   |
 |    directions (solid angle) = 1.                   |
 |   -The volume coefficient (k) is equal to C * N    |
 |      = cross section * Number density              |
 |      typical units: [um^2]*[particles/cm^3] =      |
 |      [10^-3 km-1]                                  |
 |      N = M/(d*4/3*pi*r^3) where d is the density   |
 |      of particle, M is the mass per unit volume    |
 |      and 4/3*pi*r^3 is the average volume  of a    |
 |      particle.                                     |
 |      typical units:  M -> [ug/m^3], d -> [g/cm^3]  |
 |                      r -> [um]                     |
 |      Lidar ratio= 4 pi Qe / phase_fct(180)*Qs      |
 |----------------------------------------------------|
