 |--------|------------|
 | ANGLE  |  PHASE FCT |
 |--------|------------|
     0.00   60.173    
     1.00   59.348    
     2.00   56.982    
     3.00   53.365    
     4.00   48.895    
     5.00   43.977    
     6.00   38.964    
     7.00   34.125    
     8.00   29.636    
     9.00   25.597    
    10.00   22.045    
    11.00   18.977    
    12.00   16.361    
    13.00   14.153    
    14.00   12.299    
    15.00   10.750    
    16.00   9.4566    
    17.00   8.3752    
    18.00   7.4684    
    19.00   6.7041    
    20.00   6.0558    
    21.00   5.5016    
    22.00   5.0239    
    23.00   4.6084    
    24.00   4.2438    
    25.00   3.9210    
    26.00   3.6329    
    27.00   3.3738    
    28.00   3.1392    
    29.00   2.9256    
    30.00   2.7301    
    31.00   2.5505    
    32.00   2.3847    
    33.00   2.2315    
    34.00   2.0894    
    35.00   1.9574    
    36.00   1.8347    
    37.00   1.7204    
    38.00   1.6139    
    39.00   1.5146    
    40.00   1.4220    
    41.00   1.3355    
    42.00   1.2548    
    43.00   1.1794    
    44.00   1.1090    
    45.00   1.0432    
    46.00  0.98169    
    47.00  0.92424    
    48.00  0.87054    
    49.00  0.82034    
    50.00  0.77340    
    51.00  0.72950    
    52.00  0.68845    
    53.00  0.65004    
    54.00  0.61410    
    55.00  0.58047    
    56.00  0.54899    
    57.00  0.51951    
    58.00  0.49190    
    59.00  0.46605    
    60.00  0.44182    
    61.00  0.41911    
    62.00  0.39782    
    63.00  0.37787    
    64.00  0.35916    
    65.00  0.34160    
    66.00  0.32514    
    67.00  0.30968    
    68.00  0.29518    
    69.00  0.28157    
    70.00  0.26879    
    71.00  0.25679    
    72.00  0.24551    
    73.00  0.23493    
    74.00  0.22498    
    75.00  0.21564    
    76.00  0.20686    
    77.00  0.19861    
    78.00  0.19086    
    79.00  0.18358    
    80.00  0.17673    
    81.00  0.17030    
    82.00  0.16426    
    83.00  0.15859    
    84.00  0.15326    
    85.00  0.14825    
    86.00  0.14355    
    87.00  0.13914    
    88.00  0.13500    
    89.00  0.13112    
    90.00  0.12748    
    91.00  0.12407    
    92.00  0.12088    
    93.00  0.11790    
    94.00  0.11512    
    95.00  0.11252    
    96.00  0.11010    
    97.00  0.10785    
    98.00  0.10577    
    99.00  0.10384    
   100.00  0.10207    
   101.00  0.10044    
   102.00  0.98951E-01
   103.00  0.97602E-01
   104.00  0.96388E-01
   105.00  0.95306E-01
   106.00  0.94355E-01
   107.00  0.93532E-01
   108.00  0.92838E-01
   109.00  0.92271E-01
   110.00  0.91832E-01
   111.00  0.91522E-01
   112.00  0.91342E-01
   113.00  0.91295E-01
   114.00  0.91382E-01
   115.00  0.91606E-01
   116.00  0.91972E-01
   117.00  0.92484E-01
   118.00  0.93145E-01
   119.00  0.93962E-01
   120.00  0.94938E-01
   121.00  0.96081E-01
   122.00  0.97397E-01
   123.00  0.98891E-01
   124.00  0.10057    
   125.00  0.10244    
   126.00  0.10452    
   127.00  0.10679    
   128.00  0.10929    
   129.00  0.11200    
   130.00  0.11493    
   131.00  0.11809    
   132.00  0.12149    
   133.00  0.12512    
   134.00  0.12899    
   135.00  0.13309    
   136.00  0.13741    
   137.00  0.14196    
   138.00  0.14672    
   139.00  0.15169    
   140.00  0.15683    
   141.00  0.16214    
   142.00  0.16760    
   143.00  0.17318    
   144.00  0.17886    
   145.00  0.18462    
   146.00  0.19044    
   147.00  0.19629    
   148.00  0.20218    
   149.00  0.20809    
   150.00  0.21404    
   151.00  0.22005    
   152.00  0.22617    
   153.00  0.23245    
   154.00  0.23898    
   155.00  0.24583    
   156.00  0.25310    
   157.00  0.26085    
   158.00  0.26912    
   159.00  0.27787    
   160.00  0.28693    
   161.00  0.29599    
   162.00  0.30454    
   163.00  0.31179    
   164.00  0.31677    
   165.00  0.31831    
   166.00  0.31521    
   167.00  0.30646    
   168.00  0.29152    
   169.00  0.27075    
   170.00  0.24564    
   171.00  0.21901    
   172.00  0.19485    
   173.00  0.17764    
   174.00  0.17140    
   175.00  0.17842    
   176.00  0.19803    
   177.00  0.22611    
   178.00  0.25548    
   179.00  0.27775    
   180.00  0.28606    
 |--------|------------|
0.390000     micron = Wavelength
 2.84883     = Extinction efficiency (Q)
 2.84883     = Scattering efficiency (Qs)
 0.00000     = Absorption efficiency (Qa)
 43.9287     = Lidar ratio
0.625716     micron^2 = <b> = Average surface area per particle
 1.78256     microns^2 = Extinction cross section (C)
 1.78256     microns^2 = Scattering cross section (Cs)
0.540368E-15 microns^2 = Absorption cross section (Ca)
 |----------------------------------------------------|
 | COMMENTAIRES:                                      |
 |----------------------------------------------------|
 |   -Cross section / <b> should = efficiency         |
 |    is independant of the normalisation of dN/dx    |
 |   -The integral of the phase fct / 4 pi over all   |
 |    directions (solid angle) = 1.                   |
 |   -The volume coefficient (k) is equal to C * N    |
 |      = cross section * Number density              |
 |      typical units: [um^2]*[particles/cm^3] =      |
 |      [10^-3 km-1]                                  |
 |      N = M/(d*4/3*pi*r^3) where d is the density   |
 |      of particle, M is the mass per unit volume    |
 |      and 4/3*pi*r^3 is the average volume  of a    |
 |      particle.                                     |
 |      typical units:  M -> [ug/m^3], d -> [g/cm^3]  |
 |                      r -> [um]                     |
 |      Lidar ratio= 4 pi Qe / phase_fct(180)*Qs      |
 |----------------------------------------------------|
