 |--------|------------|
 | ANGLE  |  PHASE FCT |
 |--------|------------|
     0.00   47.662    
     1.00   47.222    
     2.00   45.940    
     3.00   43.932    
     4.00   41.358    
     5.00   38.400    
     6.00   35.233    
     7.00   32.008    
     8.00   28.847    
     9.00   25.835    
    10.00   23.031    
    11.00   20.464    
    12.00   18.148    
    13.00   16.080    
    14.00   14.250    
    15.00   12.639    
    16.00   11.228    
    17.00   9.9959    
    18.00   8.9208    
    19.00   7.9833    
    20.00   7.1652    
    21.00   6.4503    
    22.00   5.8244    
    23.00   5.2748    
    24.00   4.7908    
    25.00   4.3631    
    26.00   3.9839    
    27.00   3.6464    
    28.00   3.3450    
    29.00   3.0749    
    30.00   2.8320    
    31.00   2.6129    
    32.00   2.4146    
    33.00   2.2347    
    34.00   2.0710    
    35.00   1.9217    
    36.00   1.7852    
    37.00   1.6603    
    38.00   1.5456    
    39.00   1.4403    
    40.00   1.3434    
    41.00   1.2540    
    42.00   1.1716    
    43.00   1.0955    
    44.00   1.0251    
    45.00  0.96000    
    46.00  0.89969    
    47.00  0.84379    
    48.00  0.79194    
    49.00  0.74382    
    50.00  0.69912    
    51.00  0.65757    
    52.00  0.61894    
    53.00  0.58300    
    54.00  0.54954    
    55.00  0.51837    
    56.00  0.48932    
    57.00  0.46224    
    58.00  0.43698    
    59.00  0.41340    
    60.00  0.39139    
    61.00  0.37084    
    62.00  0.35163    
    63.00  0.33367    
    64.00  0.31688    
    65.00  0.30117    
    66.00  0.28647    
    67.00  0.27270    
    68.00  0.25981    
    69.00  0.24774    
    70.00  0.23642    
    71.00  0.22581    
    72.00  0.21587    
    73.00  0.20654    
    74.00  0.19779    
    75.00  0.18959    
    76.00  0.18188    
    77.00  0.17465    
    78.00  0.16787    
    79.00  0.16150    
    80.00  0.15552    
    81.00  0.14991    
    82.00  0.14464    
    83.00  0.13969    
    84.00  0.13505    
    85.00  0.13069    
    86.00  0.12661    
    87.00  0.12277    
    88.00  0.11918    
    89.00  0.11581    
    90.00  0.11266    
    91.00  0.10971    
    92.00  0.10695    
    93.00  0.10438    
    94.00  0.10198    
    95.00  0.99742E-01
    96.00  0.97663E-01
    97.00  0.95734E-01
    98.00  0.93951E-01
    99.00  0.92305E-01
   100.00  0.90793E-01
   101.00  0.89409E-01
   102.00  0.88149E-01
   103.00  0.87010E-01
   104.00  0.85988E-01
   105.00  0.85081E-01
   106.00  0.84287E-01
   107.00  0.83602E-01
   108.00  0.83026E-01
   109.00  0.82557E-01
   110.00  0.82195E-01
   111.00  0.81940E-01
   112.00  0.81791E-01
   113.00  0.81748E-01
   114.00  0.81812E-01
   115.00  0.81984E-01
   116.00  0.82266E-01
   117.00  0.82657E-01
   118.00  0.83161E-01
   119.00  0.83779E-01
   120.00  0.84513E-01
   121.00  0.85365E-01
   122.00  0.86338E-01
   123.00  0.87434E-01
   124.00  0.88656E-01
   125.00  0.90005E-01
   126.00  0.91485E-01
   127.00  0.93097E-01
   128.00  0.94843E-01
   129.00  0.96725E-01
   130.00  0.98744E-01
   131.00  0.10090    
   132.00  0.10319    
   133.00  0.10563    
   134.00  0.10819    
   135.00  0.11089    
   136.00  0.11372    
   137.00  0.11668    
   138.00  0.11975    
   139.00  0.12294    
   140.00  0.12624    
   141.00  0.12964    
   142.00  0.13314    
   143.00  0.13672    
   144.00  0.14038    
   145.00  0.14412    
   146.00  0.14793    
   147.00  0.15182    
   148.00  0.15578    
   149.00  0.15983    
   150.00  0.16397    
   151.00  0.16821    
   152.00  0.17258    
   153.00  0.17709    
   154.00  0.18175    
   155.00  0.18656    
   156.00  0.19151    
   157.00  0.19657    
   158.00  0.20165    
   159.00  0.20661    
   160.00  0.21125    
   161.00  0.21528    
   162.00  0.21833    
   163.00  0.21993    
   164.00  0.21956    
   165.00  0.21672    
   166.00  0.21096    
   167.00  0.20204    
   168.00  0.19009    
   169.00  0.17567    
   170.00  0.15993    
   171.00  0.14454    
   172.00  0.13157    
   173.00  0.12308    
   174.00  0.12069    
   175.00  0.12499    
   176.00  0.13517    
   177.00  0.14891    
   178.00  0.16277    
   179.00  0.17304    
   180.00  0.17683    
 |--------|------------|
0.560000     micron = Wavelength
 3.05379     = Extinction efficiency (Q)
 3.05379     = Scattering efficiency (Qs)
 0.00000     = Absorption efficiency (Qa)
 71.0649     = Lidar ratio
0.917850     micron^2 = <b> = Average surface area per particle
 2.80293     microns^2 = Extinction cross section (C)
 2.80293     microns^2 = Scattering cross section (Cs)
-.557066E-15 microns^2 = Absorption cross section (Ca)
 |----------------------------------------------------|
 | COMMENTAIRES:                                      |
 |----------------------------------------------------|
 |   -Cross section / <b> should = efficiency         |
 |    is independant of the normalisation of dN/dx    |
 |   -The integral of the phase fct / 4 pi over all   |
 |    directions (solid angle) = 1.                   |
 |   -The volume coefficient (k) is equal to C * N    |
 |      = cross section * Number density              |
 |      typical units: [um^2]*[particles/cm^3] =      |
 |      [10^-3 km-1]                                  |
 |      N = M/(d*4/3*pi*r^3) where d is the density   |
 |      of particle, M is the mass per unit volume    |
 |      and 4/3*pi*r^3 is the average volume  of a    |
 |      particle.                                     |
 |      typical units:  M -> [ug/m^3], d -> [g/cm^3]  |
 |                      r -> [um]                     |
 |      Lidar ratio= 4 pi Qe / phase_fct(180)*Qs      |
 |----------------------------------------------------|
