 |--------|------------|
 | ANGLE  |  PHASE FCT |
 |--------|------------|
     0.00   35.823    
     1.00   35.624    
     2.00   35.039    
     3.00   34.098    
     4.00   32.850    
     5.00   31.351    
     6.00   29.663    
     7.00   27.849    
     8.00   25.963    
     9.00   24.058    
    10.00   22.173    
    11.00   20.342    
    12.00   18.589    
    13.00   16.931    
    14.00   15.379    
    15.00   13.939    
    16.00   12.612    
    17.00   11.398    
    18.00   10.292    
    19.00   9.2888    
    20.00   8.3822    
    21.00   7.5652    
    22.00   6.8305    
    23.00   6.1710    
    24.00   5.5798    
    25.00   5.0503    
    26.00   4.5763    
    27.00   4.1519    
    28.00   3.7721    
    29.00   3.4319    
    30.00   3.1270    
    31.00   2.8536    
    32.00   2.6082    
    33.00   2.3877    
    34.00   2.1893    
    35.00   2.0105    
    36.00   1.8491    
    37.00   1.7034    
    38.00   1.5714    
    39.00   1.4519    
    40.00   1.3433    
    41.00   1.2446    
    42.00   1.1548    
    43.00   1.0728    
    44.00  0.99793    
    45.00  0.92944    
    46.00  0.86670    
    47.00  0.80916    
    48.00  0.75629    
    49.00  0.70767    
    50.00  0.66289    
    51.00  0.62161    
    52.00  0.58350    
    53.00  0.54828    
    54.00  0.51570    
    55.00  0.48552    
    56.00  0.45755    
    57.00  0.43160    
    58.00  0.40750    
    59.00  0.38510    
    60.00  0.36426    
    61.00  0.34487    
    62.00  0.32679    
    63.00  0.30995    
    64.00  0.29423    
    65.00  0.27956    
    66.00  0.26586    
    67.00  0.25305    
    68.00  0.24107    
    69.00  0.22986    
    70.00  0.21937    
    71.00  0.20955    
    72.00  0.20034    
    73.00  0.19171    
    74.00  0.18362    
    75.00  0.17603    
    76.00  0.16890    
    77.00  0.16222    
    78.00  0.15594    
    79.00  0.15004    
    80.00  0.14450    
    81.00  0.13930    
    82.00  0.13441    
    83.00  0.12982    
    84.00  0.12550    
    85.00  0.12145    
    86.00  0.11763    
    87.00  0.11405    
    88.00  0.11069    
    89.00  0.10753    
    90.00  0.10457    
    91.00  0.10179    
    92.00  0.99182E-01
    93.00  0.96740E-01
    94.00  0.94454E-01
    95.00  0.92317E-01
    96.00  0.90320E-01
    97.00  0.88459E-01
    98.00  0.86727E-01
    99.00  0.85118E-01
   100.00  0.83627E-01
   101.00  0.82249E-01
   102.00  0.80981E-01
   103.00  0.79818E-01
   104.00  0.78757E-01
   105.00  0.77795E-01
   106.00  0.76929E-01
   107.00  0.76156E-01
   108.00  0.75474E-01
   109.00  0.74881E-01
   110.00  0.74376E-01
   111.00  0.73957E-01
   112.00  0.73623E-01
   113.00  0.73374E-01
   114.00  0.73208E-01
   115.00  0.73124E-01
   116.00  0.73124E-01
   117.00  0.73206E-01
   118.00  0.73370E-01
   119.00  0.73618E-01
   120.00  0.73949E-01
   121.00  0.74364E-01
   122.00  0.74864E-01
   123.00  0.75448E-01
   124.00  0.76119E-01
   125.00  0.76878E-01
   126.00  0.77724E-01
   127.00  0.78659E-01
   128.00  0.79686E-01
   129.00  0.80804E-01
   130.00  0.82014E-01
   131.00  0.83319E-01
   132.00  0.84717E-01
   133.00  0.86211E-01
   134.00  0.87802E-01
   135.00  0.89489E-01
   136.00  0.91274E-01
   137.00  0.93156E-01
   138.00  0.95136E-01
   139.00  0.97214E-01
   140.00  0.99389E-01
   141.00  0.10166    
   142.00  0.10403    
   143.00  0.10649    
   144.00  0.10904    
   145.00  0.11169    
   146.00  0.11442    
   147.00  0.11723    
   148.00  0.12011    
   149.00  0.12306    
   150.00  0.12606    
   151.00  0.12909    
   152.00  0.13214    
   153.00  0.13517    
   154.00  0.13813    
   155.00  0.14099    
   156.00  0.14366    
   157.00  0.14608    
   158.00  0.14814    
   159.00  0.14972    
   160.00  0.15069    
   161.00  0.15091    
   162.00  0.15023    
   163.00  0.14851    
   164.00  0.14565    
   165.00  0.14161    
   166.00  0.13644    
   167.00  0.13030    
   168.00  0.12349    
   169.00  0.11645    
   170.00  0.10978    
   171.00  0.10411    
   172.00  0.10011    
   173.00  0.98266E-01
   174.00  0.98823E-01
   175.00  0.10165    
   176.00  0.10619    
   177.00  0.11153    
   178.00  0.11652    
   179.00  0.12005    
   180.00  0.12133    
 |--------|------------|
0.720000     micron = Wavelength
 3.09859     = Extinction efficiency (Q)
 3.09859     = Scattering efficiency (Qs)
 0.00000     = Absorption efficiency (Qa)
 103.570     = Lidar ratio
0.917849     micron^2 = <b> = Average surface area per particle
 2.84403     microns^2 = Extinction cross section (C)
 2.84403     microns^2 = Scattering cross section (Cs)
 0.00000     microns^2 = Absorption cross section (Ca)
 |----------------------------------------------------|
 | COMMENTAIRES:                                      |
 |----------------------------------------------------|
 |   -Cross section / <b> should = efficiency         |
 |    is independant of the normalisation of dN/dx    |
 |   -The integral of the phase fct / 4 pi over all   |
 |    directions (solid angle) = 1.                   |
 |   -The volume coefficient (k) is equal to C * N    |
 |      = cross section * Number density              |
 |      typical units: [um^2]*[particles/cm^3] =      |
 |      [10^-3 km-1]                                  |
 |      N = M/(d*4/3*pi*r^3) where d is the density   |
 |      of particle, M is the mass per unit volume    |
 |      and 4/3*pi*r^3 is the average volume  of a    |
 |      particle.                                     |
 |      typical units:  M -> [ug/m^3], d -> [g/cm^3]  |
 |                      r -> [um]                     |
 |      Lidar ratio= 4 pi Qe / phase_fct(180)*Qs      |
 |----------------------------------------------------|
