 |--------|------------|
 | ANGLE  |  PHASE FCT |
 |--------|------------|
     0.00   15.972    
     1.00   15.936    
     2.00   15.829    
     3.00   15.654    
     4.00   15.413    
     5.00   15.111    
     6.00   14.756    
     7.00   14.352    
     8.00   13.908    
     9.00   13.430    
    10.00   12.925    
    11.00   12.400    
    12.00   11.861    
    13.00   11.315    
    14.00   10.767    
    15.00   10.222    
    16.00   9.6836    
    17.00   9.1556    
    18.00   8.6409    
    19.00   8.1421    
    20.00   7.6610    
    21.00   7.1990    
    22.00   6.7571    
    23.00   6.3361    
    24.00   5.9361    
    25.00   5.5574    
    26.00   5.1996    
    27.00   4.8625    
    28.00   4.5456    
    29.00   4.2481    
    30.00   3.9694    
    31.00   3.7086    
    32.00   3.4650    
    33.00   3.2378    
    34.00   3.0259    
    35.00   2.8285    
    36.00   2.6448    
    37.00   2.4739    
    38.00   2.3150    
    39.00   2.1674    
    40.00   2.0302    
    41.00   1.9028    
    42.00   1.7844    
    43.00   1.6745    
    44.00   1.5724    
    45.00   1.4775    
    46.00   1.3893    
    47.00   1.3074    
    48.00   1.2312    
    49.00   1.1604    
    50.00   1.0945    
    51.00   1.0331    
    52.00  0.97597    
    53.00  0.92273    
    54.00  0.87309    
    55.00  0.82680    
    56.00  0.78359    
    57.00  0.74324    
    58.00  0.70554    
    59.00  0.67028    
    60.00  0.63730    
    61.00  0.60641    
    62.00  0.57749    
    63.00  0.55037    
    64.00  0.52493    
    65.00  0.50106    
    66.00  0.47864    
    67.00  0.45757    
    68.00  0.43777    
    69.00  0.41913    
    70.00  0.40159    
    71.00  0.38507    
    72.00  0.36950    
    73.00  0.35483    
    74.00  0.34098    
    75.00  0.32792    
    76.00  0.31559    
    77.00  0.30395    
    78.00  0.29294    
    79.00  0.28254    
    80.00  0.27271    
    81.00  0.26342    
    82.00  0.25463    
    83.00  0.24631    
    84.00  0.23844    
    85.00  0.23099    
    86.00  0.22395    
    87.00  0.21728    
    88.00  0.21097    
    89.00  0.20500    
    90.00  0.19936    
    91.00  0.19402    
    92.00  0.18897    
    93.00  0.18421    
    94.00  0.17971    
    95.00  0.17546    
    96.00  0.17145    
    97.00  0.16768    
    98.00  0.16413    
    99.00  0.16080    
   100.00  0.15767    
   101.00  0.15474    
   102.00  0.15201    
   103.00  0.14946    
   104.00  0.14710    
   105.00  0.14491    
   106.00  0.14289    
   107.00  0.14104    
   108.00  0.13936    
   109.00  0.13784    
   110.00  0.13647    
   111.00  0.13526    
   112.00  0.13421    
   113.00  0.13332    
   114.00  0.13257    
   115.00  0.13198    
   116.00  0.13154    
   117.00  0.13125    
   118.00  0.13112    
   119.00  0.13113    
   120.00  0.13131    
   121.00  0.13163    
   122.00  0.13212    
   123.00  0.13276    
   124.00  0.13356    
   125.00  0.13452    
   126.00  0.13564    
   127.00  0.13693    
   128.00  0.13838    
   129.00  0.14000    
   130.00  0.14177    
   131.00  0.14372    
   132.00  0.14582    
   133.00  0.14808    
   134.00  0.15049    
   135.00  0.15306    
   136.00  0.15576    
   137.00  0.15860    
   138.00  0.16156    
   139.00  0.16462    
   140.00  0.16776    
   141.00  0.17098    
   142.00  0.17424    
   143.00  0.17752    
   144.00  0.18079    
   145.00  0.18400    
   146.00  0.18714    
   147.00  0.19016    
   148.00  0.19301    
   149.00  0.19567    
   150.00  0.19809    
   151.00  0.20023    
   152.00  0.20208    
   153.00  0.20360    
   154.00  0.20478    
   155.00  0.20564    
   156.00  0.20620    
   157.00  0.20650    
   158.00  0.20661    
   159.00  0.20663    
   160.00  0.20668    
   161.00  0.20691    
   162.00  0.20750    
   163.00  0.20861    
   164.00  0.21046    
   165.00  0.21322    
   166.00  0.21706    
   167.00  0.22212    
   168.00  0.22848    
   169.00  0.23613    
   170.00  0.24501    
   171.00  0.25495    
   172.00  0.26568    
   173.00  0.27684    
   174.00  0.28800    
   175.00  0.29866    
   176.00  0.30831    
   177.00  0.31645    
   178.00  0.32262    
   179.00  0.32647    
   180.00  0.32778    
 |--------|------------|
0.410000     micron = Wavelength
 3.14503     = Extinction efficiency (Q)
 3.14503     = Scattering efficiency (Qs)
 0.00000     = Absorption efficiency (Qa)
 38.3375     = Lidar ratio
0.110755     micron^2 = <b> = Average surface area per particle
0.348328     microns^2 = Extinction cross section (C)
0.348328     microns^2 = Scattering cross section (Cs)
0.746514E-16 microns^2 = Absorption cross section (Ca)
 |----------------------------------------------------|
 | COMMENTAIRES:                                      |
 |----------------------------------------------------|
 |   -Cross section / <b> should = efficiency         |
 |    is independant of the normalisation of dN/dx    |
 |   -The integral of the phase fct / 4 pi over all   |
 |    directions (solid angle) = 1.                   |
 |   -The volume coefficient (k) is equal to C * N    |
 |      = cross section * Number density              |
 |      typical units: [um^2]*[particles/cm^3] =      |
 |      [10^-3 km-1]                                  |
 |      N = M/(d*4/3*pi*r^3) where d is the density   |
 |      of particle, M is the mass per unit volume    |
 |      and 4/3*pi*r^3 is the average volume  of a    |
 |      particle.                                     |
 |      typical units:  M -> [ug/m^3], d -> [g/cm^3]  |
 |                      r -> [um]                     |
 |      Lidar ratio= 4 pi Qe / phase_fct(180)*Qs      |
 |----------------------------------------------------|
