 |--------|------------|
 | ANGLE  |  PHASE FCT |
 |--------|------------|
     0.00   88.445    
     1.00   86.529    
     2.00   81.152    
     3.00   73.271    
     4.00   64.073    
     5.00   54.630    
     6.00   45.711    
     7.00   37.759    
     8.00   30.962    
     9.00   25.328    
    10.00   20.764    
    11.00   17.125    
    12.00   14.256    
    13.00   12.010    
    14.00   10.254    
    15.00   8.8787    
    16.00   7.7958    
    17.00   6.9344    
    18.00   6.2400    
    19.00   5.6713    
    20.00   5.1971    
    21.00   4.7942    
    22.00   4.4454    
    23.00   4.1383    
    24.00   3.8637    
    25.00   3.6152    
    26.00   3.3878    
    27.00   3.1781    
    28.00   2.9834    
    29.00   2.8020    
    30.00   2.6324    
    31.00   2.4734    
    32.00   2.3242    
    33.00   2.1841    
    34.00   2.0525    
    35.00   1.9289    
    36.00   1.8128    
    37.00   1.7037    
    38.00   1.6014    
    39.00   1.5053    
    40.00   1.4152    
    41.00   1.3307    
    42.00   1.2515    
    43.00   1.1773    
    44.00   1.1077    
    45.00   1.0426    
    46.00  0.98152    
    47.00  0.92435    
    48.00  0.87081    
    49.00  0.82067    
    50.00  0.77371    
    51.00  0.72974    
    52.00  0.68855    
    53.00  0.64998    
    54.00  0.61384    
    55.00  0.57998    
    56.00  0.54825    
    57.00  0.51852    
    58.00  0.49064    
    59.00  0.46451    
    60.00  0.44001    
    61.00  0.41703    
    62.00  0.39547    
    63.00  0.37525    
    64.00  0.35627    
    65.00  0.33846    
    66.00  0.32174    
    67.00  0.30605    
    68.00  0.29131    
    69.00  0.27747    
    70.00  0.26448    
    71.00  0.25227    
    72.00  0.24081    
    73.00  0.23005    
    74.00  0.21994    
    75.00  0.21045    
    76.00  0.20153    
    77.00  0.19316    
    78.00  0.18531    
    79.00  0.17793    
    80.00  0.17101    
    81.00  0.16452    
    82.00  0.15843    
    83.00  0.15273    
    84.00  0.14738    
    85.00  0.14237    
    86.00  0.13768    
    87.00  0.13330    
    88.00  0.12920    
    89.00  0.12537    
    90.00  0.12180    
    91.00  0.11847    
    92.00  0.11538    
    93.00  0.11250    
    94.00  0.10983    
    95.00  0.10735    
    96.00  0.10506    
    97.00  0.10296    
    98.00  0.10102    
    99.00  0.99253E-01
   100.00  0.97642E-01
   101.00  0.96183E-01
   102.00  0.94871E-01
   103.00  0.93704E-01
   104.00  0.92678E-01
   105.00  0.91788E-01
   106.00  0.91036E-01
   107.00  0.90418E-01
   108.00  0.89935E-01
   109.00  0.89587E-01
   110.00  0.89376E-01
   111.00  0.89304E-01
   112.00  0.89375E-01
   113.00  0.89591E-01
   114.00  0.89958E-01
   115.00  0.90481E-01
   116.00  0.91167E-01
   117.00  0.92023E-01
   118.00  0.93058E-01
   119.00  0.94278E-01
   120.00  0.95695E-01
   121.00  0.97319E-01
   122.00  0.99160E-01
   123.00  0.10123    
   124.00  0.10354    
   125.00  0.10609    
   126.00  0.10891    
   127.00  0.11201    
   128.00  0.11538    
   129.00  0.11904    
   130.00  0.12299    
   131.00  0.12725    
   132.00  0.13181    
   133.00  0.13666    
   134.00  0.14179    
   135.00  0.14720    
   136.00  0.15287    
   137.00  0.15876    
   138.00  0.16485    
   139.00  0.17108    
   140.00  0.17741    
   141.00  0.18379    
   142.00  0.19014    
   143.00  0.19640    
   144.00  0.20250    
   145.00  0.20836    
   146.00  0.21391    
   147.00  0.21909    
   148.00  0.22386    
   149.00  0.22817    
   150.00  0.23204    
   151.00  0.23549    
   152.00  0.23861    
   153.00  0.24150    
   154.00  0.24437    
   155.00  0.24743    
   156.00  0.25100    
   157.00  0.25543    
   158.00  0.26109    
   159.00  0.26838    
   160.00  0.27764    
   161.00  0.28910    
   162.00  0.30272    
   163.00  0.31813    
   164.00  0.33446    
   165.00  0.35020    
   166.00  0.36326    
   167.00  0.37106    
   168.00  0.37097    
   169.00  0.36094    
   170.00  0.34044    
   171.00  0.31137    
   172.00  0.27855    
   173.00  0.24942    
   174.00  0.23264    
   175.00  0.23556    
   176.00  0.26113    
   177.00  0.30536    
   178.00  0.35648    
   179.00  0.39764    
   180.00  0.41345    
 |--------|------------|
0.498000     micron = Wavelength
 2.62691     = Extinction efficiency (Q)
 2.62691     = Scattering efficiency (Qs)
 0.00000     = Absorption efficiency (Qa)
 30.3940     = Lidar ratio
 1.56992     micron^2 = <b> = Average surface area per particle
 4.12403     microns^2 = Extinction cross section (C)
 4.12403     microns^2 = Scattering cross section (Cs)
 0.00000     microns^2 = Absorption cross section (Ca)
 |----------------------------------------------------|
 | COMMENTAIRES:                                      |
 |----------------------------------------------------|
 |   -Cross section / <b> should = efficiency         |
 |    is independant of the normalisation of dN/dx    |
 |   -The integral of the phase fct / 4 pi over all   |
 |    directions (solid angle) = 1.                   |
 |   -The volume coefficient (k) is equal to C * N    |
 |      = cross section * Number density              |
 |      typical units: [um^2]*[particles/cm^3] =      |
 |      [10^-3 km-1]                                  |
 |      N = M/(d*4/3*pi*r^3) where d is the density   |
 |      of particle, M is the mass per unit volume    |
 |      and 4/3*pi*r^3 is the average volume  of a    |
 |      particle.                                     |
 |      typical units:  M -> [ug/m^3], d -> [g/cm^3]  |
 |                      r -> [um]                     |
 |      Lidar ratio= 4 pi Qe / phase_fct(180)*Qs      |
 |----------------------------------------------------|
