 |--------|------------|
 | ANGLE  |  PHASE FCT |
 |--------|------------|
     0.00   44.237    
     1.00   43.851    
     2.00   42.727    
     3.00   40.959    
     4.00   38.683    
     5.00   36.052    
     6.00   33.217    
     7.00   30.310    
     8.00   27.440    
     9.00   24.687    
    10.00   22.105    
    11.00   19.726    
    12.00   17.565    
    13.00   15.625    
    14.00   13.897    
    15.00   12.368    
    16.00   11.023    
    17.00   9.8425    
    18.00   8.8088    
    19.00   7.9045    
    20.00   7.1130    
    21.00   6.4197    
    22.00   5.8112    
    23.00   5.2759    
    24.00   4.8036    
    25.00   4.3856    
    26.00   4.0145    
    27.00   3.6838    
    28.00   3.3880    
    29.00   3.1225    
    30.00   2.8834    
    31.00   2.6673    
    32.00   2.4714    
    33.00   2.2934    
    34.00   2.1310    
    35.00   1.9826    
    36.00   1.8467    
    37.00   1.7220    
    38.00   1.6072    
    39.00   1.5015    
    40.00   1.4040    
    41.00   1.3139    
    42.00   1.2305    
    43.00   1.1533    
    44.00   1.0818    
    45.00   1.0153    
    46.00  0.95367    
    47.00  0.89635    
    48.00  0.84304    
    49.00  0.79343    
    50.00  0.74723    
    51.00  0.70418    
    52.00  0.66405    
    53.00  0.62662    
    54.00  0.59169    
    55.00  0.55909    
    56.00  0.52863    
    57.00  0.50017    
    58.00  0.47357    
    59.00  0.44869    
    60.00  0.42542    
    61.00  0.40364    
    62.00  0.38325    
    63.00  0.36415    
    64.00  0.34626    
    65.00  0.32949    
    66.00  0.31377    
    67.00  0.29903    
    68.00  0.28520    
    69.00  0.27222    
    70.00  0.26004    
    71.00  0.24861    
    72.00  0.23787    
    73.00  0.22778    
    74.00  0.21830    
    75.00  0.20940    
    76.00  0.20102    
    77.00  0.19315    
    78.00  0.18575    
    79.00  0.17879    
    80.00  0.17225    
    81.00  0.16609    
    82.00  0.16030    
    83.00  0.15485    
    84.00  0.14973    
    85.00  0.14491    
    86.00  0.14038    
    87.00  0.13612    
    88.00  0.13212    
    89.00  0.12835    
    90.00  0.12482    
    91.00  0.12150    
    92.00  0.11839    
    93.00  0.11547    
    94.00  0.11274    
    95.00  0.11018    
    96.00  0.10780    
    97.00  0.10557    
    98.00  0.10350    
    99.00  0.10158    
   100.00  0.99803E-01
   101.00  0.98163E-01
   102.00  0.96656E-01
   103.00  0.95278E-01
   104.00  0.94027E-01
   105.00  0.92899E-01
   106.00  0.91892E-01
   107.00  0.91003E-01
   108.00  0.90232E-01
   109.00  0.89576E-01
   110.00  0.89036E-01
   111.00  0.88610E-01
   112.00  0.88298E-01
   113.00  0.88102E-01
   114.00  0.88022E-01
   115.00  0.88059E-01
   116.00  0.88214E-01
   117.00  0.88489E-01
   118.00  0.88887E-01
   119.00  0.89410E-01
   120.00  0.90061E-01
   121.00  0.90843E-01
   122.00  0.91759E-01
   123.00  0.92813E-01
   124.00  0.94009E-01
   125.00  0.95352E-01
   126.00  0.96844E-01
   127.00  0.98490E-01
   128.00  0.10030    
   129.00  0.10226    
   130.00  0.10440    
   131.00  0.10671    
   132.00  0.10919    
   133.00  0.11186    
   134.00  0.11470    
   135.00  0.11774    
   136.00  0.12096    
   137.00  0.12437    
   138.00  0.12797    
   139.00  0.13177    
   140.00  0.13576    
   141.00  0.13994    
   142.00  0.14432    
   143.00  0.14888    
   144.00  0.15364    
   145.00  0.15860    
   146.00  0.16374    
   147.00  0.16908    
   148.00  0.17462    
   149.00  0.18035    
   150.00  0.18628    
   151.00  0.19241    
   152.00  0.19874    
   153.00  0.20524    
   154.00  0.21190    
   155.00  0.21866    
   156.00  0.22546    
   157.00  0.23217    
   158.00  0.23863    
   159.00  0.24459    
   160.00  0.24976    
   161.00  0.25374    
   162.00  0.25605    
   163.00  0.25619    
   164.00  0.25364    
   165.00  0.24793    
   166.00  0.23880    
   167.00  0.22625    
   168.00  0.21071    
   169.00  0.19311    
   170.00  0.17493    
   171.00  0.15808    
   172.00  0.14471    
   173.00  0.13678    
   174.00  0.13564    
   175.00  0.14152    
   176.00  0.15324    
   177.00  0.16823    
   178.00  0.18294    
   179.00  0.19366    
   180.00  0.19759    
 |--------|------------|
0.400000     micron = Wavelength
 3.05810     = Extinction efficiency (Q)
 3.05810     = Scattering efficiency (Qs)
 0.00000     = Absorption efficiency (Qa)
 63.5989     = Lidar ratio
0.437501     micron^2 = <b> = Average surface area per particle
 1.33792     microns^2 = Extinction cross section (C)
 1.33792     microns^2 = Scattering cross section (Cs)
0.284217E-15 microns^2 = Absorption cross section (Ca)
 |----------------------------------------------------|
 | COMMENTAIRES:                                      |
 |----------------------------------------------------|
 |   -Cross section / <b> should = efficiency         |
 |    is independant of the normalisation of dN/dx    |
 |   -The integral of the phase fct / 4 pi over all   |
 |    directions (solid angle) = 1.                   |
 |   -The volume coefficient (k) is equal to C * N    |
 |      = cross section * Number density              |
 |      typical units: [um^2]*[particles/cm^3] =      |
 |      [10^-3 km-1]                                  |
 |      N = M/(d*4/3*pi*r^3) where d is the density   |
 |      of particle, M is the mass per unit volume    |
 |      and 4/3*pi*r^3 is the average volume  of a    |
 |      particle.                                     |
 |      typical units:  M -> [ug/m^3], d -> [g/cm^3]  |
 |                      r -> [um]                     |
 |      Lidar ratio= 4 pi Qe / phase_fct(180)*Qs      |
 |----------------------------------------------------|
