 |--------|------------|
 | ANGLE  |  PHASE FCT |
 |--------|------------|
     0.00   61.312    
     1.00   60.480    
     2.00   58.096    
     3.00   54.451    
     4.00   49.943    
     5.00   44.981    
     6.00   39.920    
     7.00   35.029    
     8.00   30.486    
     9.00   26.390    
    10.00   22.782    
    11.00   19.656    
    12.00   16.984    
    13.00   14.719    
    14.00   12.811    
    15.00   11.209    
    16.00   9.8645    
    17.00   8.7349    
    18.00   7.7826    
    19.00   6.9757    
    20.00   6.2878    
    21.00   5.6972    
    22.00   5.1863    
    23.00   4.7408    
    24.00   4.3491    
    25.00   4.0021    
    26.00   3.6925    
    27.00   3.4145    
    28.00   3.1633    
    29.00   2.9353    
    30.00   2.7274    
    31.00   2.5371    
    32.00   2.3623    
    33.00   2.2015    
    34.00   2.0531    
    35.00   1.9160    
    36.00   1.7891    
    37.00   1.6715    
    38.00   1.5625    
    39.00   1.4614    
    40.00   1.3675    
    41.00   1.2803    
    42.00   1.1992    
    43.00   1.1238    
    44.00   1.0537    
    45.00  0.98846    
    46.00  0.92777    
    47.00  0.87126    
    48.00  0.81864    
    49.00  0.76963    
    50.00  0.72397    
    51.00  0.68141    
    52.00  0.64172    
    53.00  0.60472    
    54.00  0.57021    
    55.00  0.53799    
    56.00  0.50792    
    57.00  0.47984    
    58.00  0.45361    
    59.00  0.42910    
    60.00  0.40619    
    61.00  0.38477    
    62.00  0.36474    
    63.00  0.34599    
    64.00  0.32845    
    65.00  0.31202    
    66.00  0.29664    
    67.00  0.28224    
    68.00  0.26874    
    69.00  0.25609    
    70.00  0.24424    
    71.00  0.23312    
    72.00  0.22270    
    73.00  0.21292    
    74.00  0.20375    
    75.00  0.19515    
    76.00  0.18709    
    77.00  0.17952    
    78.00  0.17242    
    79.00  0.16576    
    80.00  0.15951    
    81.00  0.15365    
    82.00  0.14816    
    83.00  0.14300    
    84.00  0.13818    
    85.00  0.13365    
    86.00  0.12942    
    87.00  0.12545    
    88.00  0.12174    
    89.00  0.11828    
    90.00  0.11504    
    91.00  0.11201    
    92.00  0.10920    
    93.00  0.10658    
    94.00  0.10414    
    95.00  0.10188    
    96.00  0.99791E-01
    97.00  0.97863E-01
    98.00  0.96088E-01
    99.00  0.94463E-01
   100.00  0.92981E-01
   101.00  0.91637E-01
   102.00  0.90427E-01
   103.00  0.89348E-01
   104.00  0.88397E-01
   105.00  0.87570E-01
   106.00  0.86867E-01
   107.00  0.86284E-01
   108.00  0.85823E-01
   109.00  0.85481E-01
   110.00  0.85260E-01
   111.00  0.85159E-01
   112.00  0.85180E-01
   113.00  0.85325E-01
   114.00  0.85594E-01
   115.00  0.85991E-01
   116.00  0.86519E-01
   117.00  0.87180E-01
   118.00  0.87978E-01
   119.00  0.88918E-01
   120.00  0.90002E-01
   121.00  0.91235E-01
   122.00  0.92622E-01
   123.00  0.94167E-01
   124.00  0.95874E-01
   125.00  0.97748E-01
   126.00  0.99792E-01
   127.00  0.10201    
   128.00  0.10440    
   129.00  0.10697    
   130.00  0.10972    
   131.00  0.11265    
   132.00  0.11575    
   133.00  0.11902    
   134.00  0.12246    
   135.00  0.12606    
   136.00  0.12979    
   137.00  0.13366    
   138.00  0.13764    
   139.00  0.14172    
   140.00  0.14586    
   141.00  0.15006    
   142.00  0.15428    
   143.00  0.15849    
   144.00  0.16268    
   145.00  0.16682    
   146.00  0.17089    
   147.00  0.17488    
   148.00  0.17878    
   149.00  0.18261    
   150.00  0.18638    
   151.00  0.19013    
   152.00  0.19393    
   153.00  0.19784    
   154.00  0.20195    
   155.00  0.20639    
   156.00  0.21125    
   157.00  0.21666    
   158.00  0.22269    
   159.00  0.22936    
   160.00  0.23663    
   161.00  0.24430    
   162.00  0.25200    
   163.00  0.25916    
   164.00  0.26496    
   165.00  0.26838    
   166.00  0.26829    
   167.00  0.26361    
   168.00  0.25359    
   169.00  0.23816    
   170.00  0.21825    
   171.00  0.19602    
   172.00  0.17484    
   173.00  0.15876    
   174.00  0.15166    
   175.00  0.15601    
   176.00  0.17168    
   177.00  0.19529    
   178.00  0.22057    
   179.00  0.23995    
   180.00  0.24723    
 |--------|------------|
0.616000     micron = Wavelength
 2.88747     = Extinction efficiency (Q)
 2.88747     = Scattering efficiency (Qs)
 0.00000     = Absorption efficiency (Qa)
 50.8296     = Lidar ratio
 1.56998     micron^2 = <b> = Average surface area per particle
 4.53327     microns^2 = Extinction cross section (C)
 4.53327     microns^2 = Scattering cross section (Cs)
 0.00000     microns^2 = Absorption cross section (Ca)
 |----------------------------------------------------|
 | COMMENTAIRES:                                      |
 |----------------------------------------------------|
 |   -Cross section / <b> should = efficiency         |
 |    is independant of the normalisation of dN/dx    |
 |   -The integral of the phase fct / 4 pi over all   |
 |    directions (solid angle) = 1.                   |
 |   -The volume coefficient (k) is equal to C * N    |
 |      = cross section * Number density              |
 |      typical units: [um^2]*[particles/cm^3] =      |
 |      [10^-3 km-1]                                  |
 |      N = M/(d*4/3*pi*r^3) where d is the density   |
 |      of particle, M is the mass per unit volume    |
 |      and 4/3*pi*r^3 is the average volume  of a    |
 |      particle.                                     |
 |      typical units:  M -> [ug/m^3], d -> [g/cm^3]  |
 |                      r -> [um]                     |
 |      Lidar ratio= 4 pi Qe / phase_fct(180)*Qs      |
 |----------------------------------------------------|
