 |--------|------------|
 | ANGLE  |  PHASE FCT |
 |--------|------------|
     0.00   149.32    
     1.00   143.88    
     2.00   129.14    
     3.00   108.98    
     4.00   87.634    
     5.00   68.113    
     6.00   51.832    
     7.00   39.034    
     8.00   29.372    
     9.00   22.283    
    10.00   17.177    
    11.00   13.534    
    12.00   10.943    
    13.00   9.0953    
    14.00   7.7648    
    15.00   6.7906    
    16.00   6.0603    
    17.00   5.4965    
    18.00   5.0468    
    19.00   4.6763    
    20.00   4.3616    
    21.00   4.0867    
    22.00   3.8407    
    23.00   3.6170    
    24.00   3.4113    
    25.00   3.2202    
    26.00   3.0411    
    27.00   2.8727    
    28.00   2.7141    
    29.00   2.5644    
    30.00   2.4228    
    31.00   2.2887    
    32.00   2.1620    
    33.00   2.0421    
    34.00   1.9287    
    35.00   1.8213    
    36.00   1.7198    
    37.00   1.6240    
    38.00   1.5334    
    39.00   1.4478    
    40.00   1.3670    
    41.00   1.2908    
    42.00   1.2189    
    43.00   1.1511    
    44.00   1.0871    
    45.00   1.0269    
    46.00  0.97006    
    47.00  0.91651    
    48.00  0.86608    
    49.00  0.81859    
    50.00  0.77385    
    51.00  0.73170    
    52.00  0.69201    
    53.00  0.65466    
    54.00  0.61947    
    55.00  0.58633    
    56.00  0.55513    
    57.00  0.52576    
    58.00  0.49809    
    59.00  0.47203    
    60.00  0.44751    
    61.00  0.42442    
    62.00  0.40265    
    63.00  0.38215    
    64.00  0.36285    
    65.00  0.34469    
    66.00  0.32756    
    67.00  0.31143    
    68.00  0.29625    
    69.00  0.28195    
    70.00  0.26848    
    71.00  0.25580    
    72.00  0.24386    
    73.00  0.23262    
    74.00  0.22203    
    75.00  0.21208    
    76.00  0.20272    
    77.00  0.19391    
    78.00  0.18562    
    79.00  0.17784    
    80.00  0.17054    
    81.00  0.16367    
    82.00  0.15723    
    83.00  0.15119    
    84.00  0.14553    
    85.00  0.14023    
    86.00  0.13527    
    87.00  0.13063    
    88.00  0.12630    
    89.00  0.12226    
    90.00  0.11850    
    91.00  0.11499    
    92.00  0.11173    
    93.00  0.10871    
    94.00  0.10591    
    95.00  0.10332    
    96.00  0.10092    
    97.00  0.98717E-01
    98.00  0.96687E-01
    99.00  0.94827E-01
   100.00  0.93130E-01
   101.00  0.91586E-01
   102.00  0.90186E-01
   103.00  0.88924E-01
   104.00  0.87797E-01
   105.00  0.86799E-01
   106.00  0.85927E-01
   107.00  0.85181E-01
   108.00  0.84562E-01
   109.00  0.84064E-01
   110.00  0.83688E-01
   111.00  0.83441E-01
   112.00  0.83330E-01
   113.00  0.83360E-01
   114.00  0.83537E-01
   115.00  0.83867E-01
   116.00  0.84364E-01
   117.00  0.85044E-01
   118.00  0.85919E-01
   119.00  0.87006E-01
   120.00  0.88323E-01
   121.00  0.89890E-01
   122.00  0.91728E-01
   123.00  0.93865E-01
   124.00  0.96324E-01
   125.00  0.99131E-01
   126.00  0.10231    
   127.00  0.10590    
   128.00  0.10992    
   129.00  0.11439    
   130.00  0.11935    
   131.00  0.12482    
   132.00  0.13081    
   133.00  0.13733    
   134.00  0.14440    
   135.00  0.15200    
   136.00  0.16011    
   137.00  0.16870    
   138.00  0.17770    
   139.00  0.18706    
   140.00  0.19668    
   141.00  0.20643    
   142.00  0.21620    
   143.00  0.22582    
   144.00  0.23512    
   145.00  0.24393    
   146.00  0.25208    
   147.00  0.25938    
   148.00  0.26567    
   149.00  0.27085    
   150.00  0.27485    
   151.00  0.27763    
   152.00  0.27924    
   153.00  0.27985    
   154.00  0.27967    
   155.00  0.27903    
   156.00  0.27837    
   157.00  0.27825    
   158.00  0.27932    
   159.00  0.28237    
   160.00  0.28830    
   161.00  0.29804    
   162.00  0.31241    
   163.00  0.33206    
   164.00  0.35711    
   165.00  0.38677    
   166.00  0.41905    
   167.00  0.45054    
   168.00  0.47643    
   169.00  0.49120    
   170.00  0.49023    
   171.00  0.47177    
   172.00  0.43872    
   173.00  0.39980    
   174.00  0.36858    
   175.00  0.36023    
   176.00  0.38702    
   177.00  0.45221    
   178.00  0.54185    
   179.00  0.62235    
   180.00  0.65500    
 |--------|------------|
0.380000     micron = Wavelength
 2.40113     = Extinction efficiency (Q)
 2.40113     = Scattering efficiency (Qs)
 0.00000     = Absorption efficiency (Qa)
 19.1852     = Lidar ratio
 1.56907     micron^2 = <b> = Average surface area per particle
 3.76754     microns^2 = Extinction cross section (C)
 3.76754     microns^2 = Scattering cross section (Cs)
0.102602E-14 microns^2 = Absorption cross section (Ca)
 |----------------------------------------------------|
 | COMMENTAIRES:                                      |
 |----------------------------------------------------|
 |   -Cross section / <b> should = efficiency         |
 |    is independant of the normalisation of dN/dx    |
 |   -The integral of the phase fct / 4 pi over all   |
 |    directions (solid angle) = 1.                   |
 |   -The volume coefficient (k) is equal to C * N    |
 |      = cross section * Number density              |
 |      typical units: [um^2]*[particles/cm^3] =      |
 |      [10^-3 km-1]                                  |
 |      N = M/(d*4/3*pi*r^3) where d is the density   |
 |      of particle, M is the mass per unit volume    |
 |      and 4/3*pi*r^3 is the average volume  of a    |
 |      particle.                                     |
 |      typical units:  M -> [ug/m^3], d -> [g/cm^3]  |
 |                      r -> [um]                     |
 |      Lidar ratio= 4 pi Qe / phase_fct(180)*Qs      |
 |----------------------------------------------------|
