 |--------|------------|
 | ANGLE  |  PHASE FCT |
 |--------|------------|
     0.00   42.858    
     1.00   42.504    
     2.00   41.471    
     3.00   39.842    
     4.00   37.736    
     5.00   35.289    
     6.00   32.637    
     7.00   29.901    
     8.00   27.182    
     9.00   24.556    
    10.00   22.076    
    11.00   19.774    
    12.00   17.670    
    13.00   15.768    
    14.00   14.063    
    15.00   12.545    
    16.00   11.202    
    17.00   10.016    
    18.00   8.9732    
    19.00   8.0564    
    20.00   7.2509    
    21.00   6.5428    
    22.00   5.9195    
    23.00   5.3701    
    24.00   4.8845    
    25.00   4.4544    
    26.00   4.0722    
    27.00   3.7316    
    28.00   3.4271    
    29.00   3.1540    
    30.00   2.9083    
    31.00   2.6866    
    32.00   2.4859    
    33.00   2.3038    
    34.00   2.1381    
    35.00   1.9869    
    36.00   1.8487    
    37.00   1.7220    
    38.00   1.6058    
    39.00   1.4989    
    40.00   1.4004    
    41.00   1.3095    
    42.00   1.2256    
    43.00   1.1480    
    44.00   1.0762    
    45.00   1.0096    
    46.00  0.94784    
    47.00  0.89050    
    48.00  0.83723    
    49.00  0.78769    
    50.00  0.74160    
    51.00  0.69868    
    52.00  0.65870    
    53.00  0.62144    
    54.00  0.58669    
    55.00  0.55426    
    56.00  0.52399    
    57.00  0.49571    
    58.00  0.46930    
    59.00  0.44460    
    60.00  0.42150    
    61.00  0.39989    
    62.00  0.37967    
    63.00  0.36073    
    64.00  0.34299    
    65.00  0.32638    
    66.00  0.31080    
    67.00  0.29619    
    68.00  0.28249    
    69.00  0.26964    
    70.00  0.25757    
    71.00  0.24625    
    72.00  0.23562    
    73.00  0.22563    
    74.00  0.21625    
    75.00  0.20743    
    76.00  0.19914    
    77.00  0.19135    
    78.00  0.18402    
    79.00  0.17713    
    80.00  0.17065    
    81.00  0.16456    
    82.00  0.15882    
    83.00  0.15343    
    84.00  0.14836    
    85.00  0.14359    
    86.00  0.13910    
    87.00  0.13488    
    88.00  0.13092    
    89.00  0.12719    
    90.00  0.12369    
    91.00  0.12040    
    92.00  0.11732    
    93.00  0.11443    
    94.00  0.11172    
    95.00  0.10919    
    96.00  0.10683    
    97.00  0.10462    
    98.00  0.10257    
    99.00  0.10066    
   100.00  0.98900E-01
   101.00  0.97272E-01
   102.00  0.95776E-01
   103.00  0.94408E-01
   104.00  0.93165E-01
   105.00  0.92043E-01
   106.00  0.91040E-01
   107.00  0.90155E-01
   108.00  0.89384E-01
   109.00  0.88726E-01
   110.00  0.88182E-01
   111.00  0.87751E-01
   112.00  0.87431E-01
   113.00  0.87224E-01
   114.00  0.87130E-01
   115.00  0.87150E-01
   116.00  0.87286E-01
   117.00  0.87538E-01
   118.00  0.87910E-01
   119.00  0.88402E-01
   120.00  0.89018E-01
   121.00  0.89761E-01
   122.00  0.90633E-01
   123.00  0.91639E-01
   124.00  0.92781E-01
   125.00  0.94063E-01
   126.00  0.95490E-01
   127.00  0.97064E-01
   128.00  0.98792E-01
   129.00  0.10068    
   130.00  0.10272    
   131.00  0.10493    
   132.00  0.10731    
   133.00  0.10986    
   134.00  0.11258    
   135.00  0.11549    
   136.00  0.11857    
   137.00  0.12184    
   138.00  0.12530    
   139.00  0.12894    
   140.00  0.13277    
   141.00  0.13679    
   142.00  0.14100    
   143.00  0.14540    
   144.00  0.14999    
   145.00  0.15477    
   146.00  0.15975    
   147.00  0.16491    
   148.00  0.17027    
   149.00  0.17583    
   150.00  0.18158    
   151.00  0.18751    
   152.00  0.19363    
   153.00  0.19990    
   154.00  0.20629    
   155.00  0.21276    
   156.00  0.21920    
   157.00  0.22551    
   158.00  0.23150    
   159.00  0.23694    
   160.00  0.24153    
   161.00  0.24489    
   162.00  0.24660    
   163.00  0.24618    
   164.00  0.24318    
   165.00  0.23722    
   166.00  0.22808    
   167.00  0.21586    
   168.00  0.20100    
   169.00  0.18442    
   170.00  0.16750    
   171.00  0.15202    
   172.00  0.13991    
   173.00  0.13290    
   174.00  0.13213    
   175.00  0.13772    
   176.00  0.14855    
   177.00  0.16223    
   178.00  0.17557    
   179.00  0.18526    
   180.00  0.18880    
 |--------|------------|
0.410000     micron = Wavelength
 3.07874     = Extinction efficiency (Q)
 3.07874     = Scattering efficiency (Qs)
 0.00000     = Absorption efficiency (Qa)
 66.5608     = Lidar ratio
0.437500     micron^2 = <b> = Average surface area per particle
 1.34695     microns^2 = Extinction cross section (C)
 1.34695     microns^2 = Scattering cross section (Cs)
 0.00000     microns^2 = Absorption cross section (Ca)
 |----------------------------------------------------|
 | COMMENTAIRES:                                      |
 |----------------------------------------------------|
 |   -Cross section / <b> should = efficiency         |
 |    is independant of the normalisation of dN/dx    |
 |   -The integral of the phase fct / 4 pi over all   |
 |    directions (solid angle) = 1.                   |
 |   -The volume coefficient (k) is equal to C * N    |
 |      = cross section * Number density              |
 |      typical units: [um^2]*[particles/cm^3] =      |
 |      [10^-3 km-1]                                  |
 |      N = M/(d*4/3*pi*r^3) where d is the density   |
 |      of particle, M is the mass per unit volume    |
 |      and 4/3*pi*r^3 is the average volume  of a    |
 |      particle.                                     |
 |      typical units:  M -> [ug/m^3], d -> [g/cm^3]  |
 |                      r -> [um]                     |
 |      Lidar ratio= 4 pi Qe / phase_fct(180)*Qs      |
 |----------------------------------------------------|
