 |--------|------------|
 | ANGLE  |  PHASE FCT |
 |--------|------------|
     0.00   38.689    
     1.00   38.443    
     2.00   37.721    
     3.00   36.567    
     4.00   35.047    
     5.00   33.241    
     6.00   31.232    
     7.00   29.100    
     8.00   26.916    
     9.00   24.739    
    10.00   22.618    
    11.00   20.586    
    12.00   18.669    
    13.00   16.881    
    14.00   15.231    
    15.00   13.720    
    16.00   12.346    
    17.00   11.103    
    18.00   9.9833    
    19.00   8.9784    
    20.00   8.0792    
    21.00   7.2757    
    22.00   6.5591    
    23.00   5.9203    
    24.00   5.3511    
    25.00   4.8440    
    26.00   4.3921    
    27.00   3.9890    
    28.00   3.6291    
    29.00   3.3074    
    30.00   3.0196    
    31.00   2.7615    
    32.00   2.5299    
    33.00   2.3216    
    34.00   2.1339    
    35.00   1.9646    
    36.00   1.8115    
    37.00   1.6729    
    38.00   1.5471    
    39.00   1.4327    
    40.00   1.3286    
    41.00   1.2337    
    42.00   1.1470    
    43.00   1.0676    
    44.00  0.99495    
    45.00  0.92826    
    46.00  0.86698    
    47.00  0.81060    
    48.00  0.75867    
    49.00  0.71078    
    50.00  0.66657    
    51.00  0.62570    
    52.00  0.58788    
    53.00  0.55287    
    54.00  0.52041    
    55.00  0.49029    
    56.00  0.46233    
    57.00  0.43634    
    58.00  0.41217    
    59.00  0.38967    
    60.00  0.36872    
    61.00  0.34920    
    62.00  0.33099    
    63.00  0.31399    
    64.00  0.29813    
    65.00  0.28331    
    66.00  0.26946    
    67.00  0.25650    
    68.00  0.24438    
    69.00  0.23304    
    70.00  0.22242    
    71.00  0.21246    
    72.00  0.20314    
    73.00  0.19439    
    74.00  0.18619    
    75.00  0.17850    
    76.00  0.17128    
    77.00  0.16450    
    78.00  0.15814    
    79.00  0.15217    
    80.00  0.14656    
    81.00  0.14129    
    82.00  0.13634    
    83.00  0.13169    
    84.00  0.12733    
    85.00  0.12322    
    86.00  0.11937    
    87.00  0.11575    
    88.00  0.11236    
    89.00  0.10917    
    90.00  0.10618    
    91.00  0.10338    
    92.00  0.10076    
    93.00  0.98301E-01
    94.00  0.96005E-01
    95.00  0.93860E-01
    96.00  0.91861E-01
    97.00  0.89999E-01
    98.00  0.88270E-01
    99.00  0.86667E-01
   100.00  0.85185E-01
   101.00  0.83820E-01
   102.00  0.82568E-01
   103.00  0.81424E-01
   104.00  0.80385E-01
   105.00  0.79449E-01
   106.00  0.78613E-01
   107.00  0.77873E-01
   108.00  0.77229E-01
   109.00  0.76677E-01
   110.00  0.76218E-01
   111.00  0.75849E-01
   112.00  0.75571E-01
   113.00  0.75381E-01
   114.00  0.75279E-01
   115.00  0.75267E-01
   116.00  0.75342E-01
   117.00  0.75507E-01
   118.00  0.75760E-01
   119.00  0.76103E-01
   120.00  0.76536E-01
   121.00  0.77060E-01
   122.00  0.77676E-01
   123.00  0.78386E-01
   124.00  0.79189E-01
   125.00  0.80088E-01
   126.00  0.81084E-01
   127.00  0.82178E-01
   128.00  0.83371E-01
   129.00  0.84664E-01
   130.00  0.86059E-01
   131.00  0.87555E-01
   132.00  0.89156E-01
   133.00  0.90859E-01
   134.00  0.92667E-01
   135.00  0.94579E-01
   136.00  0.96596E-01
   137.00  0.98716E-01
   138.00  0.10094    
   139.00  0.10327    
   140.00  0.10570    
   141.00  0.10823    
   142.00  0.11086    
   143.00  0.11359    
   144.00  0.11641    
   145.00  0.11933    
   146.00  0.12235    
   147.00  0.12546    
   148.00  0.12865    
   149.00  0.13193    
   150.00  0.13528    
   151.00  0.13870    
   152.00  0.14217    
   153.00  0.14566    
   154.00  0.14915    
   155.00  0.15259    
   156.00  0.15590    
   157.00  0.15902    
   158.00  0.16183    
   159.00  0.16418    
   160.00  0.16592    
   161.00  0.16686    
   162.00  0.16678    
   163.00  0.16547    
   164.00  0.16275    
   165.00  0.15848    
   166.00  0.15264    
   167.00  0.14534    
   168.00  0.13689    
   169.00  0.12783    
   170.00  0.11889    
   171.00  0.11097    
   172.00  0.10500    
   173.00  0.10177    
   174.00  0.10175    
   175.00  0.10490    
   176.00  0.11055    
   177.00  0.11749    
   178.00  0.12414    
   179.00  0.12892    
   180.00  0.13065    
 |--------|------------|
0.670000     micron = Wavelength
 3.12128     = Extinction efficiency (Q)
 3.12128     = Scattering efficiency (Qs)
 0.00000     = Absorption efficiency (Qa)
 96.1818     = Lidar ratio
0.917851     micron^2 = <b> = Average surface area per particle
 2.86487     microns^2 = Extinction cross section (C)
 2.86487     microns^2 = Scattering cross section (Cs)
0.398703E-15 microns^2 = Absorption cross section (Ca)
 |----------------------------------------------------|
 | COMMENTAIRES:                                      |
 |----------------------------------------------------|
 |   -Cross section / <b> should = efficiency         |
 |    is independant of the normalisation of dN/dx    |
 |   -The integral of the phase fct / 4 pi over all   |
 |    directions (solid angle) = 1.                   |
 |   -The volume coefficient (k) is equal to C * N    |
 |      = cross section * Number density              |
 |      typical units: [um^2]*[particles/cm^3] =      |
 |      [10^-3 km-1]                                  |
 |      N = M/(d*4/3*pi*r^3) where d is the density   |
 |      of particle, M is the mass per unit volume    |
 |      and 4/3*pi*r^3 is the average volume  of a    |
 |      particle.                                     |
 |      typical units:  M -> [ug/m^3], d -> [g/cm^3]  |
 |                      r -> [um]                     |
 |      Lidar ratio= 4 pi Qe / phase_fct(180)*Qs      |
 |----------------------------------------------------|
