 |--------|------------|
 | ANGLE  |  PHASE FCT |
 |--------|------------|
     0.00   94.222    
     1.00   92.041    
     2.00   85.945    
     3.00   77.077    
     4.00   66.835    
     5.00   56.449    
     6.00   46.770    
     7.00   38.259    
     8.00   31.083    
     9.00   25.216    
    10.00   20.527    
    11.00   16.836    
    12.00   13.962    
    13.00   11.736    
    14.00   10.014    
    15.00   8.6781    
    16.00   7.6326    
    17.00   6.8049    
    18.00   6.1394    
    19.00   5.5943    
    20.00   5.1388    
    21.00   4.7503    
    22.00   4.4125    
    23.00   4.1135    
    24.00   3.8447    
    25.00   3.6002    
    26.00   3.3755    
    27.00   3.1675    
    28.00   2.9738    
    29.00   2.7929    
    30.00   2.6234    
    31.00   2.4643    
    32.00   2.3149    
    33.00   2.1746    
    34.00   2.0428    
    35.00   1.9189    
    36.00   1.8025    
    37.00   1.6933    
    38.00   1.5909    
    39.00   1.4947    
    40.00   1.4046    
    41.00   1.3201    
    42.00   1.2409    
    43.00   1.1667    
    44.00   1.0973    
    45.00   1.0322    
    46.00  0.97134    
    47.00  0.91434    
    48.00  0.86099    
    49.00  0.81106    
    50.00  0.76431    
    51.00  0.72055    
    52.00  0.67958    
    53.00  0.64123    
    54.00  0.60532    
    55.00  0.57168    
    56.00  0.54018    
    57.00  0.51067    
    58.00  0.48301    
    59.00  0.45709    
    60.00  0.43280    
    61.00  0.41002    
    62.00  0.38866    
    63.00  0.36863    
    64.00  0.34983    
    65.00  0.33220    
    66.00  0.31565    
    67.00  0.30012    
    68.00  0.28555    
    69.00  0.27186    
    70.00  0.25901    
    71.00  0.24695    
    72.00  0.23562    
    73.00  0.22498    
    74.00  0.21500    
    75.00  0.20562    
    76.00  0.19682    
    77.00  0.18856    
    78.00  0.18080    
    79.00  0.17353    
    80.00  0.16670    
    81.00  0.16030    
    82.00  0.15430    
    83.00  0.14869    
    84.00  0.14342    
    85.00  0.13850    
    86.00  0.13390    
    87.00  0.12959    
    88.00  0.12558    
    89.00  0.12183    
    90.00  0.11834    
    91.00  0.11509    
    92.00  0.11208    
    93.00  0.10928    
    94.00  0.10669    
    95.00  0.10430    
    96.00  0.10210    
    97.00  0.10008    
    98.00  0.98227E-01
    99.00  0.96544E-01
   100.00  0.95022E-01
   101.00  0.93653E-01
   102.00  0.92433E-01
   103.00  0.91358E-01
   104.00  0.90425E-01
   105.00  0.89631E-01
   106.00  0.88974E-01
   107.00  0.88454E-01
   108.00  0.88070E-01
   109.00  0.87822E-01
   110.00  0.87713E-01
   111.00  0.87744E-01
   112.00  0.87919E-01
   113.00  0.88242E-01
   114.00  0.88718E-01
   115.00  0.89353E-01
   116.00  0.90152E-01
   117.00  0.91126E-01
   118.00  0.92281E-01
   119.00  0.93626E-01
   120.00  0.95172E-01
   121.00  0.96928E-01
   122.00  0.98907E-01
   123.00  0.10112    
   124.00  0.10358    
   125.00  0.10629    
   126.00  0.10927    
   127.00  0.11252    
   128.00  0.11606    
   129.00  0.11989    
   130.00  0.12402    
   131.00  0.12844    
   132.00  0.13316    
   133.00  0.13816    
   134.00  0.14345    
   135.00  0.14898    
   136.00  0.15475    
   137.00  0.16071    
   138.00  0.16683    
   139.00  0.17305    
   140.00  0.17931    
   141.00  0.18554    
   142.00  0.19168    
   143.00  0.19766    
   144.00  0.20337    
   145.00  0.20876    
   146.00  0.21375    
   147.00  0.21827    
   148.00  0.22229    
   149.00  0.22577    
   150.00  0.22872    
   151.00  0.23120    
   152.00  0.23329    
   153.00  0.23513    
   154.00  0.23692    
   155.00  0.23892    
   156.00  0.24145    
   157.00  0.24488    
   158.00  0.24964    
   159.00  0.25616    
   160.00  0.26485    
   161.00  0.27604    
   162.00  0.28981    
   163.00  0.30594    
   164.00  0.32367    
   165.00  0.34163    
   166.00  0.35771    
   167.00  0.36919    
   168.00  0.37309    
   169.00  0.36685    
   170.00  0.34932    
   171.00  0.32180    
   172.00  0.28882    
   173.00  0.25801    
   174.00  0.23875    
   175.00  0.23946    
   176.00  0.26418    
   177.00  0.30948    
   178.00  0.36318    
   179.00  0.40702    
   180.00  0.42397    
 |--------|------------|
0.600000     micron = Wavelength
 2.60277     = Extinction efficiency (Q)
 2.60277     = Scattering efficiency (Qs)
 0.00000     = Absorption efficiency (Qa)
 29.6395     = Lidar ratio
 2.43669     micron^2 = <b> = Average surface area per particle
 6.34214     microns^2 = Extinction cross section (C)
 6.34214     microns^2 = Scattering cross section (Cs)
0.255795E-14 microns^2 = Absorption cross section (Ca)
 |----------------------------------------------------|
 | COMMENTAIRES:                                      |
 |----------------------------------------------------|
 |   -Cross section / <b> should = efficiency         |
 |    is independant of the normalisation of dN/dx    |
 |   -The integral of the phase fct / 4 pi over all   |
 |    directions (solid angle) = 1.                   |
 |   -The volume coefficient (k) is equal to C * N    |
 |      = cross section * Number density              |
 |      typical units: [um^2]*[particles/cm^3] =      |
 |      [10^-3 km-1]                                  |
 |      N = M/(d*4/3*pi*r^3) where d is the density   |
 |      of particle, M is the mass per unit volume    |
 |      and 4/3*pi*r^3 is the average volume  of a    |
 |      particle.                                     |
 |      typical units:  M -> [ug/m^3], d -> [g/cm^3]  |
 |                      r -> [um]                     |
 |      Lidar ratio= 4 pi Qe / phase_fct(180)*Qs      |
 |----------------------------------------------------|
