 |--------|------------|
 | ANGLE  |  PHASE FCT |
 |--------|------------|
     0.00   25.907    
     1.00   25.814    
     2.00   25.541    
     3.00   25.094    
     4.00   24.490    
     5.00   23.746    
     6.00   22.883    
     7.00   21.924    
     8.00   20.892    
     9.00   19.808    
    10.00   18.695    
    11.00   17.569    
    12.00   16.448    
    13.00   15.344    
    14.00   14.270    
    15.00   13.233    
    16.00   12.242    
    17.00   11.300    
    18.00   10.411    
    19.00   9.5760    
    20.00   8.7961    
    21.00   8.0704    
    22.00   7.3979    
    23.00   6.7767    
    24.00   6.2045    
    25.00   5.6788    
    26.00   5.1968    
    27.00   4.7559    
    28.00   4.3530    
    29.00   3.9854    
    30.00   3.6504    
    31.00   3.3453    
    32.00   3.0677    
    33.00   2.8152    
    34.00   2.5855    
    35.00   2.3767    
    36.00   2.1869    
    37.00   2.0142    
    38.00   1.8571    
    39.00   1.7142    
    40.00   1.5840    
    41.00   1.4654    
    42.00   1.3573    
    43.00   1.2587    
    44.00   1.1686    
    45.00   1.0863    
    46.00   1.0110    
    47.00  0.94205    
    48.00  0.87884    
    49.00  0.82085    
    50.00  0.76759    
    51.00  0.71862    
    52.00  0.67354    
    53.00  0.63201    
    54.00  0.59370    
    55.00  0.55833    
    56.00  0.52564    
    57.00  0.49539    
    58.00  0.46737    
    59.00  0.44139    
    60.00  0.41728    
    61.00  0.39489    
    62.00  0.37407    
    63.00  0.35469    
    64.00  0.33664    
    65.00  0.31982    
    66.00  0.30412    
    67.00  0.28947    
    68.00  0.27577    
    69.00  0.26297    
    70.00  0.25099    
    71.00  0.23977    
    72.00  0.22926    
    73.00  0.21940    
    74.00  0.21016    
    75.00  0.20148    
    76.00  0.19333    
    77.00  0.18568    
    78.00  0.17848    
    79.00  0.17172    
    80.00  0.16535    
    81.00  0.15937    
    82.00  0.15373    
    83.00  0.14843    
    84.00  0.14343    
    85.00  0.13873    
    86.00  0.13430    
    87.00  0.13013    
    88.00  0.12620    
    89.00  0.12250    
    90.00  0.11901    
    91.00  0.11573    
    92.00  0.11264    
    93.00  0.10974    
    94.00  0.10701    
    95.00  0.10444    
    96.00  0.10203    
    97.00  0.99774E-01
    98.00  0.97657E-01
    99.00  0.95678E-01
   100.00  0.93829E-01
   101.00  0.92104E-01
   102.00  0.90500E-01
   103.00  0.89012E-01
   104.00  0.87635E-01
   105.00  0.86366E-01
   106.00  0.85201E-01
   107.00  0.84138E-01
   108.00  0.83174E-01
   109.00  0.82305E-01
   110.00  0.81531E-01
   111.00  0.80848E-01
   112.00  0.80257E-01
   113.00  0.79755E-01
   114.00  0.79340E-01
   115.00  0.79014E-01
   116.00  0.78773E-01
   117.00  0.78620E-01
   118.00  0.78553E-01
   119.00  0.78572E-01
   120.00  0.78678E-01
   121.00  0.78872E-01
   122.00  0.79153E-01
   123.00  0.79523E-01
   124.00  0.79983E-01
   125.00  0.80535E-01
   126.00  0.81179E-01
   127.00  0.81917E-01
   128.00  0.82751E-01
   129.00  0.83682E-01
   130.00  0.84712E-01
   131.00  0.85844E-01
   132.00  0.87078E-01
   133.00  0.88417E-01
   134.00  0.89861E-01
   135.00  0.91413E-01
   136.00  0.93073E-01
   137.00  0.94842E-01
   138.00  0.96719E-01
   139.00  0.98704E-01
   140.00  0.10080    
   141.00  0.10299    
   142.00  0.10528    
   143.00  0.10767    
   144.00  0.11014    
   145.00  0.11269    
   146.00  0.11529    
   147.00  0.11795    
   148.00  0.12063    
   149.00  0.12331    
   150.00  0.12596    
   151.00  0.12854    
   152.00  0.13103    
   153.00  0.13337    
   154.00  0.13550    
   155.00  0.13739    
   156.00  0.13896    
   157.00  0.14016    
   158.00  0.14092    
   159.00  0.14119    
   160.00  0.14093    
   161.00  0.14010    
   162.00  0.13871    
   163.00  0.13676    
   164.00  0.13433    
   165.00  0.13152    
   166.00  0.12847    
   167.00  0.12540    
   168.00  0.12252    
   169.00  0.12010    
   170.00  0.11837    
   171.00  0.11755    
   172.00  0.11778    
   173.00  0.11909    
   174.00  0.12138    
   175.00  0.12442    
   176.00  0.12784    
   177.00  0.13119    
   178.00  0.13401    
   179.00  0.13590    
   180.00  0.13656    
 |--------|------------|
0.410000     micron = Wavelength
 2.95171     = Extinction efficiency (Q)
 2.95171     = Scattering efficiency (Qs)
 0.00000     = Absorption efficiency (Qa)
 92.0233     = Lidar ratio
0.180223     micron^2 = <b> = Average surface area per particle
0.531966     microns^2 = Extinction cross section (C)
0.531966     microns^2 = Scattering cross section (Cs)
0.223954E-15 microns^2 = Absorption cross section (Ca)
 |----------------------------------------------------|
 | COMMENTAIRES:                                      |
 |----------------------------------------------------|
 |   -Cross section / <b> should = efficiency         |
 |    is independant of the normalisation of dN/dx    |
 |   -The integral of the phase fct / 4 pi over all   |
 |    directions (solid angle) = 1.                   |
 |   -The volume coefficient (k) is equal to C * N    |
 |      = cross section * Number density              |
 |      typical units: [um^2]*[particles/cm^3] =      |
 |      [10^-3 km-1]                                  |
 |      N = M/(d*4/3*pi*r^3) where d is the density   |
 |      of particle, M is the mass per unit volume    |
 |      and 4/3*pi*r^3 is the average volume  of a    |
 |      particle.                                     |
 |      typical units:  M -> [ug/m^3], d -> [g/cm^3]  |
 |                      r -> [um]                     |
 |      Lidar ratio= 4 pi Qe / phase_fct(180)*Qs      |
 |----------------------------------------------------|
