 |--------|------------|
 | ANGLE  |  PHASE FCT |
 |--------|------------|
     0.00   34.827    
     1.00   34.643    
     2.00   34.101    
     3.00   33.229    
     4.00   32.067    
     5.00   30.667    
     6.00   29.086    
     7.00   27.377    
     8.00   25.594    
     9.00   23.782    
    10.00   21.981    
    11.00   20.222    
    12.00   18.529    
    13.00   16.920    
    14.00   15.407    
    15.00   13.997    
    16.00   12.691    
    17.00   11.491    
    18.00   10.394    
    19.00   9.3944    
    20.00   8.4881    
    21.00   7.6686    
    22.00   6.9295    
    23.00   6.2642    
    24.00   5.6663    
    25.00   5.1297    
    26.00   4.6483    
    27.00   4.2168    
    28.00   3.8299    
    29.00   3.4831    
    30.00   3.1720    
    31.00   2.8929    
    32.00   2.6423    
    33.00   2.4170    
    34.00   2.2144    
    35.00   2.0318    
    36.00   1.8671    
    37.00   1.7184    
    38.00   1.5839    
    39.00   1.4621    
    40.00   1.3517    
    41.00   1.2513    
    42.00   1.1600    
    43.00   1.0768    
    44.00   1.0010    
    45.00  0.93161    
    46.00  0.86816    
    47.00  0.81001    
    48.00  0.75665    
    49.00  0.70762    
    50.00  0.66251    
    51.00  0.62097    
    52.00  0.58264    
    53.00  0.54726    
    54.00  0.51456    
    55.00  0.48429    
    56.00  0.45626    
    57.00  0.43026    
    58.00  0.40614    
    59.00  0.38373    
    60.00  0.36290    
    61.00  0.34352    
    62.00  0.32547    
    63.00  0.30865    
    64.00  0.29296    
    65.00  0.27832    
    66.00  0.26465    
    67.00  0.25188    
    68.00  0.23994    
    69.00  0.22877    
    70.00  0.21832    
    71.00  0.20853    
    72.00  0.19936    
    73.00  0.19076    
    74.00  0.18270    
    75.00  0.17514    
    76.00  0.16805    
    77.00  0.16139    
    78.00  0.15514    
    79.00  0.14927    
    80.00  0.14375    
    81.00  0.13857    
    82.00  0.13370    
    83.00  0.12912    
    84.00  0.12482    
    85.00  0.12078    
    86.00  0.11698    
    87.00  0.11342    
    88.00  0.11006    
    89.00  0.10691    
    90.00  0.10396    
    91.00  0.10118    
    92.00  0.98583E-01
    93.00  0.96145E-01
    94.00  0.93862E-01
    95.00  0.91726E-01
    96.00  0.89731E-01
    97.00  0.87869E-01
    98.00  0.86135E-01
    99.00  0.84523E-01
   100.00  0.83028E-01
   101.00  0.81646E-01
   102.00  0.80372E-01
   103.00  0.79201E-01
   104.00  0.78132E-01
   105.00  0.77160E-01
   106.00  0.76282E-01
   107.00  0.75497E-01
   108.00  0.74801E-01
   109.00  0.74193E-01
   110.00  0.73671E-01
   111.00  0.73234E-01
   112.00  0.72880E-01
   113.00  0.72609E-01
   114.00  0.72419E-01
   115.00  0.72311E-01
   116.00  0.72283E-01
   117.00  0.72335E-01
   118.00  0.72468E-01
   119.00  0.72682E-01
   120.00  0.72976E-01
   121.00  0.73353E-01
   122.00  0.73810E-01
   123.00  0.74351E-01
   124.00  0.74975E-01
   125.00  0.75683E-01
   126.00  0.76477E-01
   127.00  0.77357E-01
   128.00  0.78324E-01
   129.00  0.79380E-01
   130.00  0.80525E-01
   131.00  0.81760E-01
   132.00  0.83087E-01
   133.00  0.84506E-01
   134.00  0.86018E-01
   135.00  0.87625E-01
   136.00  0.89325E-01
   137.00  0.91120E-01
   138.00  0.93010E-01
   139.00  0.94994E-01
   140.00  0.97073E-01
   141.00  0.99246E-01
   142.00  0.10151    
   143.00  0.10387    
   144.00  0.10631    
   145.00  0.10884    
   146.00  0.11145    
   147.00  0.11414    
   148.00  0.11689    
   149.00  0.11969    
   150.00  0.12254    
   151.00  0.12541    
   152.00  0.12828    
   153.00  0.13112    
   154.00  0.13387    
   155.00  0.13651    
   156.00  0.13894    
   157.00  0.14111    
   158.00  0.14291    
   159.00  0.14425    
   160.00  0.14499    
   161.00  0.14501    
   162.00  0.14418    
   163.00  0.14241    
   164.00  0.13960    
   165.00  0.13575    
   166.00  0.13091    
   167.00  0.12526    
   168.00  0.11908    
   169.00  0.11280    
   170.00  0.10692    
   171.00  0.10202    
   172.00  0.98667E-01
   173.00  0.97262E-01
   174.00  0.97991E-01
   175.00  0.10070    
   176.00  0.10488    
   177.00  0.10971    
   178.00  0.11418    
   179.00  0.11734    
   180.00  0.11847    
 |--------|------------|
0.740000     micron = Wavelength
 3.08106     = Extinction efficiency (Q)
 3.08106     = Scattering efficiency (Qs)
 0.00000     = Absorption efficiency (Qa)
 106.069     = Lidar ratio
0.917849     micron^2 = <b> = Average surface area per particle
 2.82794     microns^2 = Extinction cross section (C)
 2.82794     microns^2 = Scattering cross section (Cs)
 0.00000     microns^2 = Absorption cross section (Ca)
 |----------------------------------------------------|
 | COMMENTAIRES:                                      |
 |----------------------------------------------------|
 |   -Cross section / <b> should = efficiency         |
 |    is independant of the normalisation of dN/dx    |
 |   -The integral of the phase fct / 4 pi over all   |
 |    directions (solid angle) = 1.                   |
 |   -The volume coefficient (k) is equal to C * N    |
 |      = cross section * Number density              |
 |      typical units: [um^2]*[particles/cm^3] =      |
 |      [10^-3 km-1]                                  |
 |      N = M/(d*4/3*pi*r^3) where d is the density   |
 |      of particle, M is the mass per unit volume    |
 |      and 4/3*pi*r^3 is the average volume  of a    |
 |      particle.                                     |
 |      typical units:  M -> [ug/m^3], d -> [g/cm^3]  |
 |                      r -> [um]                     |
 |      Lidar ratio= 4 pi Qe / phase_fct(180)*Qs      |
 |----------------------------------------------------|
