 |--------|------------|
 | ANGLE  |  PHASE FCT |
 |--------|------------|
     0.00   30.251    
     1.00   30.122    
     2.00   29.740    
     3.00   29.120    
     4.00   28.287    
     5.00   27.269    
     6.00   26.102    
     7.00   24.819    
     8.00   23.455    
     9.00   22.043    
    10.00   20.611    
    11.00   19.185    
    12.00   17.784    
    13.00   16.427    
    14.00   15.125    
    15.00   13.887    
    16.00   12.721    
    17.00   11.629    
    18.00   10.612    
    19.00   9.6717    
    20.00   8.8049    
    21.00   8.0093    
    22.00   7.2815    
    23.00   6.6178    
    24.00   6.0139    
    25.00   5.4656    
    26.00   4.9687    
    27.00   4.5188    
    28.00   4.1121    
    29.00   3.7447    
    30.00   3.4131    
    31.00   3.1137    
    32.00   2.8435    
    33.00   2.5996    
    34.00   2.3795    
    35.00   2.1807    
    36.00   2.0010    
    37.00   1.8386    
    38.00   1.6916    
    39.00   1.5585    
    40.00   1.4378    
    41.00   1.3283    
    42.00   1.2287    
    43.00   1.1382    
    44.00   1.0558    
    45.00  0.98063    
    46.00  0.91202    
    47.00  0.84931    
    48.00  0.79191    
    49.00  0.73932    
    50.00  0.69106    
    51.00  0.64673    
    52.00  0.60595    
    53.00  0.56840    
    54.00  0.53379    
    55.00  0.50183    
    56.00  0.47230    
    57.00  0.44499    
    58.00  0.41969    
    59.00  0.39624    
    60.00  0.37448    
    61.00  0.35427    
    62.00  0.33548    
    63.00  0.31800    
    64.00  0.30172    
    65.00  0.28654    
    66.00  0.27239    
    67.00  0.25918    
    68.00  0.24683    
    69.00  0.23530    
    70.00  0.22450    
    71.00  0.21440    
    72.00  0.20494    
    73.00  0.19608    
    74.00  0.18777    
    75.00  0.17998    
    76.00  0.17267    
    77.00  0.16580    
    78.00  0.15935    
    79.00  0.15330    
    80.00  0.14760    
    81.00  0.14225    
    82.00  0.13722    
    83.00  0.13249    
    84.00  0.12804    
    85.00  0.12386    
    86.00  0.11992    
    87.00  0.11622    
    88.00  0.11274    
    89.00  0.10946    
    90.00  0.10639    
    91.00  0.10349    
    92.00  0.10078    
    93.00  0.98224E-01
    94.00  0.95829E-01
    95.00  0.93585E-01
    96.00  0.91482E-01
    97.00  0.89514E-01
    98.00  0.87676E-01
    99.00  0.85961E-01
   100.00  0.84363E-01
   101.00  0.82880E-01
   102.00  0.81504E-01
   103.00  0.80234E-01
   104.00  0.79064E-01
   105.00  0.77991E-01
   106.00  0.77013E-01
   107.00  0.76126E-01
   108.00  0.75329E-01
   109.00  0.74618E-01
   110.00  0.73992E-01
   111.00  0.73449E-01
   112.00  0.72988E-01
   113.00  0.72607E-01
   114.00  0.72306E-01
   115.00  0.72083E-01
   116.00  0.71939E-01
   117.00  0.71871E-01
   118.00  0.71882E-01
   119.00  0.71970E-01
   120.00  0.72134E-01
   121.00  0.72377E-01
   122.00  0.72699E-01
   123.00  0.73098E-01
   124.00  0.73577E-01
   125.00  0.74137E-01
   126.00  0.74777E-01
   127.00  0.75500E-01
   128.00  0.76306E-01
   129.00  0.77196E-01
   130.00  0.78172E-01
   131.00  0.79235E-01
   132.00  0.80385E-01
   133.00  0.81625E-01
   134.00  0.82955E-01
   135.00  0.84375E-01
   136.00  0.85888E-01
   137.00  0.87492E-01
   138.00  0.89189E-01
   139.00  0.90978E-01
   140.00  0.92858E-01
   141.00  0.94828E-01
   142.00  0.96885E-01
   143.00  0.99026E-01
   144.00  0.10125    
   145.00  0.10354    
   146.00  0.10590    
   147.00  0.10831    
   148.00  0.11076    
   149.00  0.11324    
   150.00  0.11572    
   151.00  0.11818    
   152.00  0.12059    
   153.00  0.12291    
   154.00  0.12509    
   155.00  0.12709    
   156.00  0.12884    
   157.00  0.13028    
   158.00  0.13135    
   159.00  0.13195    
   160.00  0.13203    
   161.00  0.13152    
   162.00  0.13036    
   163.00  0.12853    
   164.00  0.12602    
   165.00  0.12291    
   166.00  0.11929    
   167.00  0.11536    
   168.00  0.11134    
   169.00  0.10755    
   170.00  0.10432    
   171.00  0.10197    
   172.00  0.10077    
   173.00  0.10089    
   174.00  0.10233    
   175.00  0.10489    
   176.00  0.10818    
   177.00  0.11166    
   178.00  0.11474    
   179.00  0.11684    
   180.00  0.11759    
 |--------|------------|
0.690000     micron = Wavelength
 2.98407     = Extinction efficiency (Q)
 2.98407     = Scattering efficiency (Qs)
 0.00000     = Absorption efficiency (Qa)
 106.862     = Lidar ratio
0.625714     micron^2 = <b> = Average surface area per particle
 1.86717     microns^2 = Extinction cross section (C)
 1.86717     microns^2 = Scattering cross section (Cs)
 0.00000     microns^2 = Absorption cross section (Ca)
 |----------------------------------------------------|
 | COMMENTAIRES:                                      |
 |----------------------------------------------------|
 |   -Cross section / <b> should = efficiency         |
 |    is independant of the normalisation of dN/dx    |
 |   -The integral of the phase fct / 4 pi over all   |
 |    directions (solid angle) = 1.                   |
 |   -The volume coefficient (k) is equal to C * N    |
 |      = cross section * Number density              |
 |      typical units: [um^2]*[particles/cm^3] =      |
 |      [10^-3 km-1]                                  |
 |      N = M/(d*4/3*pi*r^3) where d is the density   |
 |      of particle, M is the mass per unit volume    |
 |      and 4/3*pi*r^3 is the average volume  of a    |
 |      particle.                                     |
 |      typical units:  M -> [ug/m^3], d -> [g/cm^3]  |
 |                      r -> [um]                     |
 |      Lidar ratio= 4 pi Qe / phase_fct(180)*Qs      |
 |----------------------------------------------------|
