 |--------|------------|
 | ANGLE  |  PHASE FCT |
 |--------|------------|
     0.00   13.222    
     1.00   13.202    
     2.00   13.142    
     3.00   13.044    
     4.00   12.908    
     5.00   12.736    
     6.00   12.531    
     7.00   12.294    
     8.00   12.029    
     9.00   11.738    
    10.00   11.424    
    11.00   11.092    
    12.00   10.743    
    13.00   10.381    
    14.00   10.008    
    15.00   9.6293    
    16.00   9.2457    
    17.00   8.8604    
    18.00   8.4756    
    19.00   8.0934    
    20.00   7.7159    
    21.00   7.3446    
    22.00   6.9811    
    23.00   6.6265    
    24.00   6.2820    
    25.00   5.9482    
    26.00   5.6260    
    27.00   5.3157    
    28.00   5.0178    
    29.00   4.7325    
    30.00   4.4598    
    31.00   4.1998    
    32.00   3.9523    
    33.00   3.7172    
    34.00   3.4942    
    35.00   3.2831    
    36.00   3.0835    
    37.00   2.8951    
    38.00   2.7173    
    39.00   2.5499    
    40.00   2.3923    
    41.00   2.2442    
    42.00   2.1051    
    43.00   1.9745    
    44.00   1.8520    
    45.00   1.7372    
    46.00   1.6297    
    47.00   1.5291    
    48.00   1.4349    
    49.00   1.3468    
    50.00   1.2645    
    51.00   1.1875    
    52.00   1.1156    
    53.00   1.0484    
    54.00  0.98563    
    55.00  0.92701    
    56.00  0.87227    
    57.00  0.82115    
    58.00  0.77342    
    59.00  0.72885    
    60.00  0.68722    
    61.00  0.64836    
    62.00  0.61205    
    63.00  0.57814    
    64.00  0.54647    
    65.00  0.51686    
    66.00  0.48920    
    67.00  0.46334    
    68.00  0.43916    
    69.00  0.41655    
    70.00  0.39540    
    71.00  0.37560    
    72.00  0.35708    
    73.00  0.33973    
    74.00  0.32349    
    75.00  0.30827    
    76.00  0.29400    
    77.00  0.28063    
    78.00  0.26809    
    79.00  0.25633    
    80.00  0.24529    
    81.00  0.23493    
    82.00  0.22520    
    83.00  0.21606    
    84.00  0.20747    
    85.00  0.19941    
    86.00  0.19182    
    87.00  0.18469    
    88.00  0.17799    
    89.00  0.17168    
    90.00  0.16574    
    91.00  0.16016    
    92.00  0.15490    
    93.00  0.14996    
    94.00  0.14531    
    95.00  0.14093    
    96.00  0.13681    
    97.00  0.13293    
    98.00  0.12928    
    99.00  0.12585    
   100.00  0.12263    
   101.00  0.11960    
   102.00  0.11675    
   103.00  0.11408    
   104.00  0.11158    
   105.00  0.10924    
   106.00  0.10704    
   107.00  0.10499    
   108.00  0.10307    
   109.00  0.10129    
   110.00  0.99629E-01
   111.00  0.98090E-01
   112.00  0.96666E-01
   113.00  0.95352E-01
   114.00  0.94144E-01
   115.00  0.93039E-01
   116.00  0.92032E-01
   117.00  0.91121E-01
   118.00  0.90303E-01
   119.00  0.89573E-01
   120.00  0.88931E-01
   121.00  0.88373E-01
   122.00  0.87896E-01
   123.00  0.87500E-01
   124.00  0.87181E-01
   125.00  0.86937E-01
   126.00  0.86768E-01
   127.00  0.86671E-01
   128.00  0.86644E-01
   129.00  0.86686E-01
   130.00  0.86796E-01
   131.00  0.86971E-01
   132.00  0.87210E-01
   133.00  0.87512E-01
   134.00  0.87875E-01
   135.00  0.88298E-01
   136.00  0.88779E-01
   137.00  0.89316E-01
   138.00  0.89908E-01
   139.00  0.90553E-01
   140.00  0.91250E-01
   141.00  0.91996E-01
   142.00  0.92790E-01
   143.00  0.93629E-01
   144.00  0.94513E-01
   145.00  0.95438E-01
   146.00  0.96403E-01
   147.00  0.97407E-01
   148.00  0.98447E-01
   149.00  0.99523E-01
   150.00  0.10063    
   151.00  0.10177    
   152.00  0.10295    
   153.00  0.10415    
   154.00  0.10539    
   155.00  0.10665    
   156.00  0.10796    
   157.00  0.10929    
   158.00  0.11067    
   159.00  0.11208    
   160.00  0.11353    
   161.00  0.11504    
   162.00  0.11659    
   163.00  0.11819    
   164.00  0.11985    
   165.00  0.12155    
   166.00  0.12331    
   167.00  0.12511    
   168.00  0.12695    
   169.00  0.12881    
   170.00  0.13067    
   171.00  0.13250    
   172.00  0.13429    
   173.00  0.13600    
   174.00  0.13758    
   175.00  0.13901    
   176.00  0.14024    
   177.00  0.14124    
   178.00  0.14198    
   179.00  0.14243    
   180.00  0.14259    
 |--------|------------|
0.620000     micron = Wavelength
 1.58490     = Extinction efficiency (Q)
 1.58490     = Scattering efficiency (Qs)
 0.00000     = Absorption efficiency (Qa)
 88.1310     = Lidar ratio
0.126655     micron^2 = <b> = Average surface area per particle
0.200737     microns^2 = Extinction cross section (C)
0.200737     microns^2 = Scattering cross section (Cs)
 0.00000     microns^2 = Absorption cross section (Ca)
 |----------------------------------------------------|
 | COMMENTAIRES:                                      |
 |----------------------------------------------------|
 |   -Cross section / <b> should = efficiency         |
 |    is independant of the normalisation of dN/dx    |
 |   -The integral of the phase fct / 4 pi over all   |
 |    directions (solid angle) = 1.                   |
 |   -The volume coefficient (k) is equal to C * N    |
 |      = cross section * Number density              |
 |      typical units: [um^2]*[particles/cm^3] =      |
 |      [10^-3 km-1]                                  |
 |      N = M/(d*4/3*pi*r^3) where d is the density   |
 |      of particle, M is the mass per unit volume    |
 |      and 4/3*pi*r^3 is the average volume  of a    |
 |      particle.                                     |
 |      typical units:  M -> [ug/m^3], d -> [g/cm^3]  |
 |                      r -> [um]                     |
 |      Lidar ratio= 4 pi Qe / phase_fct(180)*Qs      |
 |----------------------------------------------------|
