 |--------|------------|
 | ANGLE  |  PHASE FCT |
 |--------|------------|
     0.00   85.999    
     1.00   84.202    
     2.00   79.149    
     3.00   71.718    
     4.00   63.003    
     5.00   54.002    
     6.00   45.447    
     7.00   37.767    
     8.00   31.155    
     9.00   25.636    
    10.00   21.132    
    11.00   17.515    
    12.00   14.642    
    13.00   12.375    
    14.00   10.590    
    15.00   9.1825    
    16.00   8.0657    
    17.00   7.1714    
    18.00   6.4461    
    19.00   5.8491    
    20.00   5.3494    
    21.00   4.9237    
    22.00   4.5548    
    23.00   4.2300    
    24.00   3.9399    
    25.00   3.6777    
    26.00   3.4385    
    27.00   3.2183    
    28.00   3.0147    
    29.00   2.8254    
    30.00   2.6490    
    31.00   2.4841    
    32.00   2.3299    
    33.00   2.1855    
    34.00   2.0502    
    35.00   1.9235    
    36.00   1.8047    
    37.00   1.6935    
    38.00   1.5893    
    39.00   1.4918    
    40.00   1.4005    
    41.00   1.3151    
    42.00   1.2352    
    43.00   1.1605    
    44.00   1.0906    
    45.00   1.0252    
    46.00  0.96414    
    47.00  0.90701    
    48.00  0.85359    
    49.00  0.80365    
    50.00  0.75696    
    51.00  0.71329    
    52.00  0.67245    
    53.00  0.63426    
    54.00  0.59853    
    55.00  0.56509    
    56.00  0.53380    
    57.00  0.50452    
    58.00  0.47710    
    59.00  0.45142    
    60.00  0.42737    
    61.00  0.40484    
    62.00  0.38372    
    63.00  0.36393    
    64.00  0.34538    
    65.00  0.32798    
    66.00  0.31166    
    67.00  0.29635    
    68.00  0.28199    
    69.00  0.26852    
    70.00  0.25587    
    71.00  0.24400    
    72.00  0.23287    
    73.00  0.22241    
    74.00  0.21260    
    75.00  0.20339    
    76.00  0.19475    
    77.00  0.18664    
    78.00  0.17902    
    79.00  0.17188    
    80.00  0.16519    
    81.00  0.15891    
    82.00  0.15303    
    83.00  0.14751    
    84.00  0.14235    
    85.00  0.13752    
    86.00  0.13301    
    87.00  0.12878    
    88.00  0.12484    
    89.00  0.12116    
    90.00  0.11774    
    91.00  0.11455    
    92.00  0.11158    
    93.00  0.10883    
    94.00  0.10628    
    95.00  0.10393    
    96.00  0.10177    
    97.00  0.99775E-01
    98.00  0.97954E-01
    99.00  0.96297E-01
   100.00  0.94795E-01
   101.00  0.93445E-01
   102.00  0.92241E-01
   103.00  0.91181E-01
   104.00  0.90260E-01
   105.00  0.89476E-01
   106.00  0.88828E-01
   107.00  0.88314E-01
   108.00  0.87934E-01
   109.00  0.87688E-01
   110.00  0.87578E-01
   111.00  0.87605E-01
   112.00  0.87774E-01
   113.00  0.88086E-01
   114.00  0.88546E-01
   115.00  0.89160E-01
   116.00  0.89933E-01
   117.00  0.90872E-01
   118.00  0.91983E-01
   119.00  0.93275E-01
   120.00  0.94757E-01
   121.00  0.96436E-01
   122.00  0.98322E-01
   123.00  0.10042    
   124.00  0.10275    
   125.00  0.10531    
   126.00  0.10812    
   127.00  0.11118    
   128.00  0.11449    
   129.00  0.11807    
   130.00  0.12191    
   131.00  0.12601    
   132.00  0.13038    
   133.00  0.13500    
   134.00  0.13987    
   135.00  0.14496    
   136.00  0.15024    
   137.00  0.15570    
   138.00  0.16130    
   139.00  0.16698    
   140.00  0.17270    
   141.00  0.17840    
   142.00  0.18403    
   143.00  0.18951    
   144.00  0.19479    
   145.00  0.19979    
   146.00  0.20447    
   147.00  0.20877    
   148.00  0.21265    
   149.00  0.21611    
   150.00  0.21916    
   151.00  0.22185    
   152.00  0.22426    
   153.00  0.22653    
   154.00  0.22884    
   155.00  0.23142    
   156.00  0.23455    
   157.00  0.23856    
   158.00  0.24381    
   159.00  0.25064    
   160.00  0.25935    
   161.00  0.27015    
   162.00  0.28299    
   163.00  0.29751    
   164.00  0.31289    
   165.00  0.32775    
   166.00  0.34012    
   167.00  0.34761    
   168.00  0.34773    
   169.00  0.33853    
   170.00  0.31947    
   171.00  0.29222    
   172.00  0.26124    
   173.00  0.23347    
   174.00  0.21707    
   175.00  0.21897    
   176.00  0.24197    
   177.00  0.28233    
   178.00  0.32914    
   179.00  0.36683    
   180.00  0.38131    
 |--------|------------|
0.630000     micron = Wavelength
 2.65758     = Extinction efficiency (Q)
 2.65758     = Scattering efficiency (Qs)
 0.00000     = Absorption efficiency (Qa)
 32.9559     = Lidar ratio
 2.43675     micron^2 = <b> = Average surface area per particle
 6.47587     microns^2 = Extinction cross section (C)
 6.47587     microns^2 = Scattering cross section (Cs)
 0.00000     microns^2 = Absorption cross section (Ca)
 |----------------------------------------------------|
 | COMMENTAIRES:                                      |
 |----------------------------------------------------|
 |   -Cross section / <b> should = efficiency         |
 |    is independant of the normalisation of dN/dx    |
 |   -The integral of the phase fct / 4 pi over all   |
 |    directions (solid angle) = 1.                   |
 |   -The volume coefficient (k) is equal to C * N    |
 |      = cross section * Number density              |
 |      typical units: [um^2]*[particles/cm^3] =      |
 |      [10^-3 km-1]                                  |
 |      N = M/(d*4/3*pi*r^3) where d is the density   |
 |      of particle, M is the mass per unit volume    |
 |      and 4/3*pi*r^3 is the average volume  of a    |
 |      particle.                                     |
 |      typical units:  M -> [ug/m^3], d -> [g/cm^3]  |
 |                      r -> [um]                     |
 |      Lidar ratio= 4 pi Qe / phase_fct(180)*Qs      |
 |----------------------------------------------------|
