 |--------|------------|
 | ANGLE  |  PHASE FCT |
 |--------|------------|
     0.00   41.590    
     1.00   41.264    
     2.00   40.312    
     3.00   38.806    
     4.00   36.851    
     5.00   34.570    
     6.00   32.083    
     7.00   29.503    
     8.00   26.923    
     9.00   24.415    
    10.00   22.031    
    11.00   19.805    
    12.00   17.756    
    13.00   15.892    
    14.00   14.211    
    15.00   12.706    
    16.00   11.366    
    17.00   10.178    
    18.00   9.1277    
    19.00   8.2004    
    20.00   7.3825    
    21.00   6.6612    
    22.00   6.0246    
    23.00   5.4621    
    24.00   4.9641    
    25.00   4.5224    
    26.00   4.1297    
    27.00   3.7797    
    28.00   3.4668    
    29.00   3.1863    
    30.00   2.9342    
    31.00   2.7069    
    32.00   2.5015    
    33.00   2.3154    
    34.00   2.1463    
    35.00   1.9922    
    36.00   1.8517    
    37.00   1.7231    
    38.00   1.6053    
    39.00   1.4971    
    40.00   1.3976    
    41.00   1.3060    
    42.00   1.2215    
    43.00   1.1434    
    44.00   1.0712    
    45.00   1.0045    
    46.00  0.94256    
    47.00  0.88517    
    48.00  0.83190    
    49.00  0.78240    
    50.00  0.73639    
    51.00  0.69359    
    52.00  0.65374    
    53.00  0.61662    
    54.00  0.58202    
    55.00  0.54976    
    56.00  0.51965    
    57.00  0.49154    
    58.00  0.46529    
    59.00  0.44076    
    60.00  0.41783    
    61.00  0.39638    
    62.00  0.37631    
    63.00  0.35752    
    64.00  0.33993    
    65.00  0.32345    
    66.00  0.30800    
    67.00  0.29352    
    68.00  0.27994    
    69.00  0.26721    
    70.00  0.25525    
    71.00  0.24403    
    72.00  0.23350    
    73.00  0.22360    
    74.00  0.21431    
    75.00  0.20557    
    76.00  0.19736    
    77.00  0.18964    
    78.00  0.18238    
    79.00  0.17556    
    80.00  0.16914    
    81.00  0.16310    
    82.00  0.15742    
    83.00  0.15208    
    84.00  0.14706    
    85.00  0.14233    
    86.00  0.13788    
    87.00  0.13370    
    88.00  0.12977    
    89.00  0.12608    
    90.00  0.12261    
    91.00  0.11935    
    92.00  0.11630    
    93.00  0.11343    
    94.00  0.11075    
    95.00  0.10824    
    96.00  0.10589    
    97.00  0.10371    
    98.00  0.10167    
    99.00  0.99781E-01
   100.00  0.98030E-01
   101.00  0.96414E-01
   102.00  0.94928E-01
   103.00  0.93568E-01
   104.00  0.92331E-01
   105.00  0.91214E-01
   106.00  0.90214E-01
   107.00  0.89330E-01
   108.00  0.88558E-01
   109.00  0.87899E-01
   110.00  0.87350E-01
   111.00  0.86912E-01
   112.00  0.86583E-01
   113.00  0.86365E-01
   114.00  0.86257E-01
   115.00  0.86260E-01
   116.00  0.86376E-01
   117.00  0.86606E-01
   118.00  0.86950E-01
   119.00  0.87413E-01
   120.00  0.87995E-01
   121.00  0.88700E-01
   122.00  0.89530E-01
   123.00  0.90489E-01
   124.00  0.91579E-01
   125.00  0.92804E-01
   126.00  0.94168E-01
   127.00  0.95675E-01
   128.00  0.97328E-01
   129.00  0.99132E-01
   130.00  0.10109    
   131.00  0.10321    
   132.00  0.10548    
   133.00  0.10793    
   134.00  0.11054    
   135.00  0.11333    
   136.00  0.11629    
   137.00  0.11942    
   138.00  0.12274    
   139.00  0.12624    
   140.00  0.12993    
   141.00  0.13380    
   142.00  0.13785    
   143.00  0.14209    
   144.00  0.14652    
   145.00  0.15114    
   146.00  0.15595    
   147.00  0.16095    
   148.00  0.16614    
   149.00  0.17152    
   150.00  0.17708    
   151.00  0.18282    
   152.00  0.18872    
   153.00  0.19475    
   154.00  0.20088    
   155.00  0.20704    
   156.00  0.21313    
   157.00  0.21904    
   158.00  0.22458    
   159.00  0.22952    
   160.00  0.23356    
   161.00  0.23637    
   162.00  0.23754    
   163.00  0.23664    
   164.00  0.23329    
   165.00  0.22715    
   166.00  0.21811    
   167.00  0.20627    
   168.00  0.19211    
   169.00  0.17653    
   170.00  0.16083    
   171.00  0.14663    
   172.00  0.13568    
   173.00  0.12950    
   174.00  0.12906    
   175.00  0.13439    
   176.00  0.14440    
   177.00  0.15692    
   178.00  0.16903    
   179.00  0.17780    
   180.00  0.18099    
 |--------|------------|
0.420000     micron = Wavelength
 3.09653     = Extinction efficiency (Q)
 3.09653     = Scattering efficiency (Qs)
 0.00000     = Absorption efficiency (Qa)
 69.4297     = Lidar ratio
0.437499     micron^2 = <b> = Average surface area per particle
 1.35473     microns^2 = Extinction cross section (C)
 1.35473     microns^2 = Scattering cross section (Cs)
 0.00000     microns^2 = Absorption cross section (Ca)
 |----------------------------------------------------|
 | COMMENTAIRES:                                      |
 |----------------------------------------------------|
 |   -Cross section / <b> should = efficiency         |
 |    is independant of the normalisation of dN/dx    |
 |   -The integral of the phase fct / 4 pi over all   |
 |    directions (solid angle) = 1.                   |
 |   -The volume coefficient (k) is equal to C * N    |
 |      = cross section * Number density              |
 |      typical units: [um^2]*[particles/cm^3] =      |
 |      [10^-3 km-1]                                  |
 |      N = M/(d*4/3*pi*r^3) where d is the density   |
 |      of particle, M is the mass per unit volume    |
 |      and 4/3*pi*r^3 is the average volume  of a    |
 |      particle.                                     |
 |      typical units:  M -> [ug/m^3], d -> [g/cm^3]  |
 |                      r -> [um]                     |
 |      Lidar ratio= 4 pi Qe / phase_fct(180)*Qs      |
 |----------------------------------------------------|
