 |--------|------------|
 | ANGLE  |  PHASE FCT |
 |--------|------------|
     0.00   33.803    
     1.00   33.629    
     2.00   33.118    
     3.00   32.293    
     4.00   31.193    
     5.00   29.866    
     6.00   28.364    
     7.00   26.737    
     8.00   25.036    
     9.00   23.303    
    10.00   21.576    
    11.00   19.886    
    12.00   18.255    
    13.00   16.701    
    14.00   15.236    
    15.00   13.866    
    16.00   12.596    
    17.00   11.425    
    18.00   10.352    
    19.00   9.3726    
    20.00   8.4823    
    21.00   7.6755    
    22.00   6.9463    
    23.00   6.2886    
    24.00   5.6963    
    25.00   5.1636    
    26.00   4.6850    
    27.00   4.2551    
    28.00   3.8691    
    29.00   3.5225    
    30.00   3.2112    
    31.00   2.9315    
    32.00   2.6799    
    33.00   2.4536    
    34.00   2.2496    
    35.00   2.0657    
    36.00   1.8997    
    37.00   1.7496    
    38.00   1.6138    
    39.00   1.4906    
    40.00   1.3788    
    41.00   1.2772    
    42.00   1.1847    
    43.00   1.1003    
    44.00   1.0233    
    45.00  0.95287    
    46.00  0.88839    
    47.00  0.82927    
    48.00  0.77500    
    49.00  0.72510    
    50.00  0.67917    
    51.00  0.63685    
    52.00  0.59779    
    53.00  0.56172    
    54.00  0.52835    
    55.00  0.49746    
    56.00  0.46884    
    57.00  0.44229    
    58.00  0.41764    
    59.00  0.39473    
    60.00  0.37343    
    61.00  0.35360    
    62.00  0.33512    
    63.00  0.31790    
    64.00  0.30183    
    65.00  0.28683    
    66.00  0.27282    
    67.00  0.25972    
    68.00  0.24747    
    69.00  0.23601    
    70.00  0.22528    
    71.00  0.21522    
    72.00  0.20580    
    73.00  0.19696    
    74.00  0.18867    
    75.00  0.18090    
    76.00  0.17360    
    77.00  0.16674    
    78.00  0.16030    
    79.00  0.15425    
    80.00  0.14857    
    81.00  0.14322    
    82.00  0.13820    
    83.00  0.13347    
    84.00  0.12903    
    85.00  0.12486    
    86.00  0.12093    
    87.00  0.11724    
    88.00  0.11377    
    89.00  0.11051    
    90.00  0.10744    
    91.00  0.10457    
    92.00  0.10187    
    93.00  0.99338E-01
    94.00  0.96967E-01
    95.00  0.94747E-01
    96.00  0.92670E-01
    97.00  0.90731E-01
    98.00  0.88924E-01
    99.00  0.87242E-01
   100.00  0.85680E-01
   101.00  0.84235E-01
   102.00  0.82900E-01
   103.00  0.81672E-01
   104.00  0.80549E-01
   105.00  0.79525E-01
   106.00  0.78599E-01
   107.00  0.77768E-01
   108.00  0.77030E-01
   109.00  0.76382E-01
   110.00  0.75823E-01
   111.00  0.75351E-01
   112.00  0.74966E-01
   113.00  0.74666E-01
   114.00  0.74450E-01
   115.00  0.74319E-01
   116.00  0.74271E-01
   117.00  0.74307E-01
   118.00  0.74426E-01
   119.00  0.74630E-01
   120.00  0.74918E-01
   121.00  0.75291E-01
   122.00  0.75750E-01
   123.00  0.76296E-01
   124.00  0.76930E-01
   125.00  0.77653E-01
   126.00  0.78466E-01
   127.00  0.79371E-01
   128.00  0.80370E-01
   129.00  0.81463E-01
   130.00  0.82652E-01
   131.00  0.83939E-01
   132.00  0.85326E-01
   133.00  0.86813E-01
   134.00  0.88403E-01
   135.00  0.90096E-01
   136.00  0.91895E-01
   137.00  0.93798E-01
   138.00  0.95809E-01
   139.00  0.97927E-01
   140.00  0.10015    
   141.00  0.10248    
   142.00  0.10492    
   143.00  0.10746    
   144.00  0.11011    
   145.00  0.11285    
   146.00  0.11569    
   147.00  0.11861    
   148.00  0.12160    
   149.00  0.12466    
   150.00  0.12776    
   151.00  0.13088    
   152.00  0.13400    
   153.00  0.13706    
   154.00  0.14003    
   155.00  0.14285    
   156.00  0.14543    
   157.00  0.14770    
   158.00  0.14956    
   159.00  0.15087    
   160.00  0.15153    
   161.00  0.15141    
   162.00  0.15037    
   163.00  0.14832    
   164.00  0.14521    
   165.00  0.14102    
   166.00  0.13585    
   167.00  0.12990    
   168.00  0.12349    
   169.00  0.11706    
   170.00  0.11114    
   171.00  0.10632    
   172.00  0.10312    
   173.00  0.10193    
   174.00  0.10291    
   175.00  0.10585    
   176.00  0.11022    
   177.00  0.11517    
   178.00  0.11972    
   179.00  0.12292    
   180.00  0.12406    
 |--------|------------|
0.620000     micron = Wavelength
 3.09064     = Extinction efficiency (Q)
 3.09064     = Scattering efficiency (Qs)
 0.00000     = Absorption efficiency (Qa)
 101.290     = Lidar ratio
0.625715     micron^2 = <b> = Average surface area per particle
 1.93386     microns^2 = Extinction cross section (C)
 1.93386     microns^2 = Scattering cross section (Cs)
 0.00000     microns^2 = Absorption cross section (Ca)
 |----------------------------------------------------|
 | COMMENTAIRES:                                      |
 |----------------------------------------------------|
 |   -Cross section / <b> should = efficiency         |
 |    is independant of the normalisation of dN/dx    |
 |   -The integral of the phase fct / 4 pi over all   |
 |    directions (solid angle) = 1.                   |
 |   -The volume coefficient (k) is equal to C * N    |
 |      = cross section * Number density              |
 |      typical units: [um^2]*[particles/cm^3] =      |
 |      [10^-3 km-1]                                  |
 |      N = M/(d*4/3*pi*r^3) where d is the density   |
 |      of particle, M is the mass per unit volume    |
 |      and 4/3*pi*r^3 is the average volume  of a    |
 |      particle.                                     |
 |      typical units:  M -> [ug/m^3], d -> [g/cm^3]  |
 |                      r -> [um]                     |
 |      Lidar ratio= 4 pi Qe / phase_fct(180)*Qs      |
 |----------------------------------------------------|
