 |--------|------------|
 | ANGLE  |  PHASE FCT |
 |--------|------------|
     0.00   76.280    
     1.00   74.892    
     2.00   70.959    
     3.00   65.094    
     4.00   58.084    
     5.00   50.677    
     6.00   43.459    
     7.00   36.810    
     8.00   30.933    
     9.00   25.897    
    10.00   21.677    
    11.00   18.201    
    12.00   15.371    
    13.00   13.084    
    14.00   11.244    
    15.00   9.7623    
    16.00   8.5666    
    17.00   7.5956    
    18.00   6.8000    
    19.00   6.1407    
    20.00   5.5874    
    21.00   5.1165    
    22.00   4.7101    
    23.00   4.3545    
    24.00   4.0395    
    25.00   3.7571    
    26.00   3.5017    
    27.00   3.2687    
    28.00   3.0547    
    29.00   2.8572    
    30.00   2.6743    
    31.00   2.5043    
    32.00   2.3459    
    33.00   2.1983    
    34.00   2.0604    
    35.00   1.9316    
    36.00   1.8112    
    37.00   1.6986    
    38.00   1.5934    
    39.00   1.4951    
    40.00   1.4031    
    41.00   1.3172    
    42.00   1.2369    
    43.00   1.1618    
    44.00   1.0916    
    45.00   1.0261    
    46.00  0.96484    
    47.00  0.90760    
    48.00  0.85411    
    49.00  0.80413    
    50.00  0.75741    
    51.00  0.71375    
    52.00  0.67293    
    53.00  0.63475    
    54.00  0.59906    
    55.00  0.56567    
    56.00  0.53443    
    57.00  0.50520    
    58.00  0.47784    
    59.00  0.45223    
    60.00  0.42825    
    61.00  0.40578    
    62.00  0.38473    
    63.00  0.36500    
    64.00  0.34651    
    65.00  0.32918    
    66.00  0.31293    
    67.00  0.29768    
    68.00  0.28338    
    69.00  0.26997    
    70.00  0.25738    
    71.00  0.24557    
    72.00  0.23448    
    73.00  0.22408    
    74.00  0.21431    
    75.00  0.20515    
    76.00  0.19654    
    77.00  0.18847    
    78.00  0.18089    
    79.00  0.17378    
    80.00  0.16711    
    81.00  0.16086    
    82.00  0.15499    
    83.00  0.14949    
    84.00  0.14434    
    85.00  0.13952    
    86.00  0.13500    
    87.00  0.13077    
    88.00  0.12682    
    89.00  0.12313    
    90.00  0.11969    
    91.00  0.11648    
    92.00  0.11349    
    93.00  0.11071    
    94.00  0.10813    
    95.00  0.10574    
    96.00  0.10354    
    97.00  0.10150    
    98.00  0.99632E-01
    99.00  0.97923E-01
   100.00  0.96366E-01
   101.00  0.94959E-01
   102.00  0.93695E-01
   103.00  0.92572E-01
   104.00  0.91585E-01
   105.00  0.90732E-01
   106.00  0.90012E-01
   107.00  0.89423E-01
   108.00  0.88965E-01
   109.00  0.88638E-01
   110.00  0.88444E-01
   111.00  0.88383E-01
   112.00  0.88457E-01
   113.00  0.88671E-01
   114.00  0.89027E-01
   115.00  0.89530E-01
   116.00  0.90185E-01
   117.00  0.90996E-01
   118.00  0.91971E-01
   119.00  0.93116E-01
   120.00  0.94438E-01
   121.00  0.95944E-01
   122.00  0.97642E-01
   123.00  0.99540E-01
   124.00  0.10165    
   125.00  0.10397    
   126.00  0.10652    
   127.00  0.10929    
   128.00  0.11230    
   129.00  0.11556    
   130.00  0.11905    
   131.00  0.12279    
   132.00  0.12678    
   133.00  0.13100    
   134.00  0.13545    
   135.00  0.14013    
   136.00  0.14500    
   137.00  0.15005    
   138.00  0.15525    
   139.00  0.16056    
   140.00  0.16596    
   141.00  0.17139    
   142.00  0.17681    
   143.00  0.18217    
   144.00  0.18741    
   145.00  0.19250    
   146.00  0.19737    
   147.00  0.20200    
   148.00  0.20635    
   149.00  0.21043    
   150.00  0.21423    
   151.00  0.21781    
   152.00  0.22123    
   153.00  0.22461    
   154.00  0.22809    
   155.00  0.23188    
   156.00  0.23621    
   157.00  0.24132    
   158.00  0.24748    
   159.00  0.25492    
   160.00  0.26382    
   161.00  0.27418    
   162.00  0.28580    
   163.00  0.29815    
   164.00  0.31030    
   165.00  0.32088    
   166.00  0.32812    
   167.00  0.33003    
   168.00  0.32479    
   169.00  0.31127    
   170.00  0.28974    
   171.00  0.26242    
   172.00  0.23370    
   173.00  0.20975    
   174.00  0.19719    
   175.00  0.20115    
   176.00  0.22297    
   177.00  0.25861    
   178.00  0.29850    
   179.00  0.32996    
   180.00  0.34193    
 |--------|------------|
0.540000     micron = Wavelength
 2.72400     = Extinction efficiency (Q)
 2.72400     = Scattering efficiency (Qs)
 0.00000     = Absorption efficiency (Qa)
 36.7513     = Lidar ratio
 1.56995     micron^2 = <b> = Average surface area per particle
 4.27656     microns^2 = Extinction cross section (C)
 4.27656     microns^2 = Scattering cross section (Cs)
 0.00000     microns^2 = Absorption cross section (Ca)
 |----------------------------------------------------|
 | COMMENTAIRES:                                      |
 |----------------------------------------------------|
 |   -Cross section / <b> should = efficiency         |
 |    is independant of the normalisation of dN/dx    |
 |   -The integral of the phase fct / 4 pi over all   |
 |    directions (solid angle) = 1.                   |
 |   -The volume coefficient (k) is equal to C * N    |
 |      = cross section * Number density              |
 |      typical units: [um^2]*[particles/cm^3] =      |
 |      [10^-3 km-1]                                  |
 |      N = M/(d*4/3*pi*r^3) where d is the density   |
 |      of particle, M is the mass per unit volume    |
 |      and 4/3*pi*r^3 is the average volume  of a    |
 |      particle.                                     |
 |      typical units:  M -> [ug/m^3], d -> [g/cm^3]  |
 |                      r -> [um]                     |
 |      Lidar ratio= 4 pi Qe / phase_fct(180)*Qs      |
 |----------------------------------------------------|
