 |--------|------------|
 | ANGLE  |  PHASE FCT |
 |--------|------------|
     0.00   27.766    
     1.00   27.662    
     2.00   27.355    
     3.00   26.855    
     4.00   26.177    
     5.00   25.345    
     6.00   24.382    
     7.00   23.313    
     8.00   22.166    
     9.00   20.965    
    10.00   19.733    
    11.00   18.492    
    12.00   17.259    
    13.00   16.051    
    14.00   14.878    
    15.00   13.750    
    16.00   12.675    
    17.00   11.658    
    18.00   10.701    
    19.00   9.8065    
    20.00   8.9738    
    21.00   8.2022    
    22.00   7.4899    
    23.00   6.8346    
    24.00   6.2334    
    25.00   5.6834    
    26.00   5.1812    
    27.00   4.7236    
    28.00   4.3072    
    29.00   3.9289    
    30.00   3.5854    
    31.00   3.2739    
    32.00   2.9915    
    33.00   2.7357    
    34.00   2.5040    
    35.00   2.2941    
    36.00   2.1040    
    37.00   1.9317    
    38.00   1.7756    
    39.00   1.6340    
    40.00   1.5055    
    41.00   1.3889    
    42.00   1.2829    
    43.00   1.1865    
    44.00   1.0988    
    45.00   1.0188    
    46.00  0.94595    
    47.00  0.87939    
    48.00  0.81857    
    49.00  0.76291    
    50.00  0.71194    
    51.00  0.66519    
    52.00  0.62227    
    53.00  0.58282    
    54.00  0.54652    
    55.00  0.51309    
    56.00  0.48225    
    57.00  0.45378    
    58.00  0.42746    
    59.00  0.40311    
    60.00  0.38056    
    61.00  0.35966    
    62.00  0.34025    
    63.00  0.32223    
    64.00  0.30547    
    65.00  0.28988    
    66.00  0.27535    
    67.00  0.26181    
    68.00  0.24918    
    69.00  0.23738    
    70.00  0.22636    
    71.00  0.21606    
    72.00  0.20642    
    73.00  0.19739    
    74.00  0.18894    
    75.00  0.18102    
    76.00  0.17358    
    77.00  0.16661    
    78.00  0.16007    
    79.00  0.15392    
    80.00  0.14815    
    81.00  0.14272    
    82.00  0.13762    
    83.00  0.13282    
    84.00  0.12831    
    85.00  0.12407    
    86.00  0.12008    
    87.00  0.11632    
    88.00  0.11279    
    89.00  0.10947    
    90.00  0.10634    
    91.00  0.10341    
    92.00  0.10064    
    93.00  0.98048E-01
    94.00  0.95611E-01
    95.00  0.93323E-01
    96.00  0.91178E-01
    97.00  0.89169E-01
    98.00  0.87288E-01
    99.00  0.85531E-01
   100.00  0.83891E-01
   101.00  0.82364E-01
   102.00  0.80945E-01
   103.00  0.79630E-01
   104.00  0.78414E-01
   105.00  0.77295E-01
   106.00  0.76269E-01
   107.00  0.75332E-01
   108.00  0.74484E-01
   109.00  0.73720E-01
   110.00  0.73039E-01
   111.00  0.72439E-01
   112.00  0.71918E-01
   113.00  0.71475E-01
   114.00  0.71109E-01
   115.00  0.70819E-01
   116.00  0.70603E-01
   117.00  0.70461E-01
   118.00  0.70393E-01
   119.00  0.70399E-01
   120.00  0.70477E-01
   121.00  0.70629E-01
   122.00  0.70854E-01
   123.00  0.71152E-01
   124.00  0.71525E-01
   125.00  0.71972E-01
   126.00  0.72494E-01
   127.00  0.73092E-01
   128.00  0.73766E-01
   129.00  0.74517E-01
   130.00  0.75346E-01
   131.00  0.76254E-01
   132.00  0.77242E-01
   133.00  0.78308E-01
   134.00  0.79456E-01
   135.00  0.80684E-01
   136.00  0.81993E-01
   137.00  0.83382E-01
   138.00  0.84852E-01
   139.00  0.86399E-01
   140.00  0.88025E-01
   141.00  0.89724E-01
   142.00  0.91494E-01
   143.00  0.93332E-01
   144.00  0.95229E-01
   145.00  0.97180E-01
   146.00  0.99176E-01
   147.00  0.10120    
   148.00  0.10325    
   149.00  0.10530    
   150.00  0.10733    
   151.00  0.10932    
   152.00  0.11125    
   153.00  0.11307    
   154.00  0.11475    
   155.00  0.11626    
   156.00  0.11755    
   157.00  0.11856    
   158.00  0.11927    
   159.00  0.11961    
   160.00  0.11956    
   161.00  0.11906    
   162.00  0.11812    
   163.00  0.11673    
   164.00  0.11492    
   165.00  0.11276    
   166.00  0.11036    
   167.00  0.10785    
   168.00  0.10542    
   169.00  0.10328    
   170.00  0.10164    
   171.00  0.10069    
   172.00  0.10058    
   173.00  0.10137    
   174.00  0.10301    
   175.00  0.10532    
   176.00  0.10802    
   177.00  0.11073    
   178.00  0.11305    
   179.00  0.11461    
   180.00  0.11516    
 |--------|------------|
0.750000     micron = Wavelength
 2.85366     = Extinction efficiency (Q)
 2.85366     = Scattering efficiency (Qs)
 0.00000     = Absorption efficiency (Qa)
 109.126     = Lidar ratio
0.625714     micron^2 = <b> = Average surface area per particle
 1.78557     microns^2 = Extinction cross section (C)
 1.78557     microns^2 = Scattering cross section (Cs)
 0.00000     microns^2 = Absorption cross section (Ca)
 |----------------------------------------------------|
 | COMMENTAIRES:                                      |
 |----------------------------------------------------|
 |   -Cross section / <b> should = efficiency         |
 |    is independant of the normalisation of dN/dx    |
 |   -The integral of the phase fct / 4 pi over all   |
 |    directions (solid angle) = 1.                   |
 |   -The volume coefficient (k) is equal to C * N    |
 |      = cross section * Number density              |
 |      typical units: [um^2]*[particles/cm^3] =      |
 |      [10^-3 km-1]                                  |
 |      N = M/(d*4/3*pi*r^3) where d is the density   |
 |      of particle, M is the mass per unit volume    |
 |      and 4/3*pi*r^3 is the average volume  of a    |
 |      particle.                                     |
 |      typical units:  M -> [ug/m^3], d -> [g/cm^3]  |
 |                      r -> [um]                     |
 |      Lidar ratio= 4 pi Qe / phase_fct(180)*Qs      |
 |----------------------------------------------------|
