 |--------|------------|
 | ANGLE  |  PHASE FCT |
 |--------|------------|
     0.00   21.071    
     1.00   21.015    
     2.00   20.850    
     3.00   20.578    
     4.00   20.206    
     5.00   19.743    
     6.00   19.198    
     7.00   18.583    
     8.00   17.908    
     9.00   17.185    
    10.00   16.427    
    11.00   15.644    
    12.00   14.846    
    13.00   14.043    
    14.00   13.244    
    15.00   12.455    
    16.00   11.683    
    17.00   10.933    
    18.00   10.210    
    19.00   9.5150    
    20.00   8.8520    
    21.00   8.2222    
    22.00   7.6264    
    23.00   7.0651    
    24.00   6.5380    
    25.00   6.0446    
    26.00   5.5841    
    27.00   5.1553    
    28.00   4.7570    
    29.00   4.3879    
    30.00   4.0463    
    31.00   3.7308    
    32.00   3.4397    
    33.00   3.1716    
    34.00   2.9248    
    35.00   2.6979    
    36.00   2.4894    
    37.00   2.2979    
    38.00   2.1223    
    39.00   1.9611    
    40.00   1.8133    
    41.00   1.6778    
    42.00   1.5535    
    43.00   1.4396    
    44.00   1.3351    
    45.00   1.2393    
    46.00   1.1514    
    47.00   1.0707    
    48.00  0.99662    
    49.00  0.92858    
    50.00  0.86605    
    51.00  0.80856    
    52.00  0.75567    
    53.00  0.70696    
    54.00  0.66210    
    55.00  0.62074    
    56.00  0.58257    
    57.00  0.54734    
    58.00  0.51479    
    59.00  0.48468    
    60.00  0.45682    
    61.00  0.43101    
    62.00  0.40709    
    63.00  0.38490    
    64.00  0.36429    
    65.00  0.34514    
    66.00  0.32734    
    67.00  0.31076    
    68.00  0.29532    
    69.00  0.28093    
    70.00  0.26751    
    71.00  0.25497    
    72.00  0.24326    
    73.00  0.23232    
    74.00  0.22208    
    75.00  0.21249    
    76.00  0.20351    
    77.00  0.19509    
    78.00  0.18720    
    79.00  0.17979    
    80.00  0.17284    
    81.00  0.16631    
    82.00  0.16017    
    83.00  0.15440    
    84.00  0.14898    
    85.00  0.14388    
    86.00  0.13908    
    87.00  0.13456    
    88.00  0.13031    
    89.00  0.12631    
    90.00  0.12255    
    91.00  0.11900    
    92.00  0.11567    
    93.00  0.11253    
    94.00  0.10957    
    95.00  0.10680    
    96.00  0.10419    
    97.00  0.10174    
    98.00  0.99439E-01
    99.00  0.97283E-01
   100.00  0.95263E-01
   101.00  0.93374E-01
   102.00  0.91609E-01
   103.00  0.89964E-01
   104.00  0.88433E-01
   105.00  0.87013E-01
   106.00  0.85698E-01
   107.00  0.84486E-01
   108.00  0.83373E-01
   109.00  0.82355E-01
   110.00  0.81431E-01
   111.00  0.80597E-01
   112.00  0.79851E-01
   113.00  0.79192E-01
   114.00  0.78616E-01
   115.00  0.78124E-01
   116.00  0.77713E-01
   117.00  0.77382E-01
   118.00  0.77130E-01
   119.00  0.76957E-01
   120.00  0.76861E-01
   121.00  0.76842E-01
   122.00  0.76901E-01
   123.00  0.77036E-01
   124.00  0.77246E-01
   125.00  0.77534E-01
   126.00  0.77897E-01
   127.00  0.78336E-01
   128.00  0.78852E-01
   129.00  0.79443E-01
   130.00  0.80111E-01
   131.00  0.80854E-01
   132.00  0.81672E-01
   133.00  0.82566E-01
   134.00  0.83533E-01
   135.00  0.84573E-01
   136.00  0.85686E-01
   137.00  0.86868E-01
   138.00  0.88117E-01
   139.00  0.89430E-01
   140.00  0.90804E-01
   141.00  0.92233E-01
   142.00  0.93714E-01
   143.00  0.95237E-01
   144.00  0.96796E-01
   145.00  0.98383E-01
   146.00  0.99985E-01
   147.00  0.10159    
   148.00  0.10319    
   149.00  0.10476    
   150.00  0.10629    
   151.00  0.10777    
   152.00  0.10916    
   153.00  0.11046    
   154.00  0.11165    
   155.00  0.11269    
   156.00  0.11358    
   157.00  0.11431    
   158.00  0.11485    
   159.00  0.11521    
   160.00  0.11539    
   161.00  0.11540    
   162.00  0.11526    
   163.00  0.11502    
   164.00  0.11471    
   165.00  0.11441    
   166.00  0.11418    
   167.00  0.11410    
   168.00  0.11426    
   169.00  0.11472    
   170.00  0.11554    
   171.00  0.11675    
   172.00  0.11835    
   173.00  0.12029    
   174.00  0.12247    
   175.00  0.12477    
   176.00  0.12701    
   177.00  0.12901    
   178.00  0.13060    
   179.00  0.13161    
   180.00  0.13196    
 |--------|------------|
0.500000     micron = Wavelength
 2.54419     = Extinction efficiency (Q)
 2.54419     = Scattering efficiency (Qs)
 0.00000     = Absorption efficiency (Qa)
 95.2268     = Lidar ratio
0.180223     micron^2 = <b> = Average surface area per particle
0.458522     microns^2 = Extinction cross section (C)
0.458522     microns^2 = Scattering cross section (Cs)
 0.00000     microns^2 = Absorption cross section (Ca)
 |----------------------------------------------------|
 | COMMENTAIRES:                                      |
 |----------------------------------------------------|
 |   -Cross section / <b> should = efficiency         |
 |    is independant of the normalisation of dN/dx    |
 |   -The integral of the phase fct / 4 pi over all   |
 |    directions (solid angle) = 1.                   |
 |   -The volume coefficient (k) is equal to C * N    |
 |      = cross section * Number density              |
 |      typical units: [um^2]*[particles/cm^3] =      |
 |      [10^-3 km-1]                                  |
 |      N = M/(d*4/3*pi*r^3) where d is the density   |
 |      of particle, M is the mass per unit volume    |
 |      and 4/3*pi*r^3 is the average volume  of a    |
 |      particle.                                     |
 |      typical units:  M -> [ug/m^3], d -> [g/cm^3]  |
 |                      r -> [um]                     |
 |      Lidar ratio= 4 pi Qe / phase_fct(180)*Qs      |
 |----------------------------------------------------|
