 |--------|------------|
 | ANGLE  |  PHASE FCT |
 |--------|------------|
     0.00   15.862    
     1.00   15.833    
     2.00   15.744    
     3.00   15.598    
     4.00   15.397    
     5.00   15.144    
     6.00   14.843    
     7.00   14.498    
     8.00   14.115    
     9.00   13.697    
    10.00   13.251    
    11.00   12.782    
    12.00   12.295    
    13.00   11.794    
    14.00   11.285    
    15.00   10.772    
    16.00   10.259    
    17.00   9.7499    
    18.00   9.2470    
    19.00   8.7536    
    20.00   8.2720    
    21.00   7.8042    
    22.00   7.3517    
    23.00   6.9158    
    24.00   6.4974    
    25.00   6.0971    
    26.00   5.7154    
    27.00   5.3524    
    28.00   5.0082    
    29.00   4.6824    
    30.00   4.3749    
    31.00   4.0852    
    32.00   3.8127    
    33.00   3.5569    
    34.00   3.3171    
    35.00   3.0926    
    36.00   2.8827    
    37.00   2.6868    
    38.00   2.5040    
    39.00   2.3336    
    40.00   2.1750    
    41.00   2.0274    
    42.00   1.8901    
    43.00   1.7626    
    44.00   1.6441    
    45.00   1.5341    
    46.00   1.4320    
    47.00   1.3372    
    48.00   1.2493    
    49.00   1.1678    
    50.00   1.0921    
    51.00   1.0220    
    52.00  0.95695    
    53.00  0.89660    
    54.00  0.84062    
    55.00  0.78869    
    56.00  0.74049    
    57.00  0.69576    
    58.00  0.65422    
    59.00  0.61565    
    60.00  0.57982    
    61.00  0.54652    
    62.00  0.51556    
    63.00  0.48677    
    64.00  0.45998    
    65.00  0.43504    
    66.00  0.41181    
    67.00  0.39018    
    68.00  0.37000    
    69.00  0.35119    
    70.00  0.33364    
    71.00  0.31725    
    72.00  0.30194    
    73.00  0.28764    
    74.00  0.27426    
    75.00  0.26175    
    76.00  0.25004    
    77.00  0.23908    
    78.00  0.22880    
    79.00  0.21917    
    80.00  0.21014    
    81.00  0.20167    
    82.00  0.19372    
    83.00  0.18626    
    84.00  0.17925    
    85.00  0.17266    
    86.00  0.16647    
    87.00  0.16065    
    88.00  0.15518    
    89.00  0.15003    
    90.00  0.14519    
    91.00  0.14063    
    92.00  0.13635    
    93.00  0.13231    
    94.00  0.12852    
    95.00  0.12495    
    96.00  0.12159    
    97.00  0.11844    
    98.00  0.11547    
    99.00  0.11269    
   100.00  0.11007    
   101.00  0.10762    
   102.00  0.10532    
   103.00  0.10316    
   104.00  0.10115    
   105.00  0.99269E-01
   106.00  0.97517E-01
   107.00  0.95886E-01
   108.00  0.94373E-01
   109.00  0.92971E-01
   110.00  0.91679E-01
   111.00  0.90490E-01
   112.00  0.89402E-01
   113.00  0.88412E-01
   114.00  0.87515E-01
   115.00  0.86711E-01
   116.00  0.85995E-01
   117.00  0.85366E-01
   118.00  0.84821E-01
   119.00  0.84358E-01
   120.00  0.83976E-01
   121.00  0.83673E-01
   122.00  0.83447E-01
   123.00  0.83296E-01
   124.00  0.83220E-01
   125.00  0.83217E-01
   126.00  0.83285E-01
   127.00  0.83423E-01
   128.00  0.83631E-01
   129.00  0.83906E-01
   130.00  0.84248E-01
   131.00  0.84655E-01
   132.00  0.85126E-01
   133.00  0.85658E-01
   134.00  0.86251E-01
   135.00  0.86902E-01
   136.00  0.87609E-01
   137.00  0.88371E-01
   138.00  0.89183E-01
   139.00  0.90044E-01
   140.00  0.90951E-01
   141.00  0.91899E-01
   142.00  0.92885E-01
   143.00  0.93905E-01
   144.00  0.94954E-01
   145.00  0.96028E-01
   146.00  0.97122E-01
   147.00  0.98230E-01
   148.00  0.99347E-01
   149.00  0.10047    
   150.00  0.10159    
   151.00  0.10270    
   152.00  0.10381    
   153.00  0.10489    
   154.00  0.10597    
   155.00  0.10702    
   156.00  0.10806    
   157.00  0.10908    
   158.00  0.11009    
   159.00  0.11110    
   160.00  0.11212    
   161.00  0.11316    
   162.00  0.11424    
   163.00  0.11536    
   164.00  0.11656    
   165.00  0.11785    
   166.00  0.11924    
   167.00  0.12076    
   168.00  0.12239    
   169.00  0.12416    
   170.00  0.12603    
   171.00  0.12800    
   172.00  0.13002    
   173.00  0.13205    
   174.00  0.13402    
   175.00  0.13586    
   176.00  0.13750    
   177.00  0.13888    
   178.00  0.13991    
   179.00  0.14055    
   180.00  0.14077    
 |--------|------------|
0.530000     micron = Wavelength
 2.02424     = Extinction efficiency (Q)
 2.02424     = Scattering efficiency (Qs)
 0.00000     = Absorption efficiency (Qa)
 89.2707     = Lidar ratio
0.126656     micron^2 = <b> = Average surface area per particle
0.256382     microns^2 = Extinction cross section (C)
0.256382     microns^2 = Scattering cross section (Cs)
 0.00000     microns^2 = Absorption cross section (Ca)
 |----------------------------------------------------|
 | COMMENTAIRES:                                      |
 |----------------------------------------------------|
 |   -Cross section / <b> should = efficiency         |
 |    is independant of the normalisation of dN/dx    |
 |   -The integral of the phase fct / 4 pi over all   |
 |    directions (solid angle) = 1.                   |
 |   -The volume coefficient (k) is equal to C * N    |
 |      = cross section * Number density              |
 |      typical units: [um^2]*[particles/cm^3] =      |
 |      [10^-3 km-1]                                  |
 |      N = M/(d*4/3*pi*r^3) where d is the density   |
 |      of particle, M is the mass per unit volume    |
 |      and 4/3*pi*r^3 is the average volume  of a    |
 |      particle.                                     |
 |      typical units:  M -> [ug/m^3], d -> [g/cm^3]  |
 |                      r -> [um]                     |
 |      Lidar ratio= 4 pi Qe / phase_fct(180)*Qs      |
 |----------------------------------------------------|
