 |--------|------------|
 | ANGLE  |  PHASE FCT |
 |--------|------------|
     0.00   102.95    
     1.00   100.32    
     2.00   93.033    
     3.00   82.543    
     4.00   70.611    
     5.00   58.731    
     6.00   47.875    
     7.00   38.523    
     8.00   30.799    
     9.00   24.614    
    10.00   19.768    
    11.00   16.031    
    12.00   13.177    
    13.00   11.007    
    14.00   9.3594    
    15.00   8.1014    
    16.00   7.1320    
    17.00   6.3744    
    18.00   5.7711    
    19.00   5.2805    
    20.00   4.8721    
    21.00   4.5240    
    22.00   4.2206    
    23.00   3.9511    
    24.00   3.7077    
    25.00   3.4849    
    26.00   3.2790    
    27.00   3.0872    
    28.00   2.9076    
    29.00   2.7390    
    30.00   2.5802    
    31.00   2.4305    
    32.00   2.2892    
    33.00   2.1560    
    34.00   2.0303    
    35.00   1.9117    
    36.00   1.8000    
    37.00   1.6947    
    38.00   1.5956    
    39.00   1.5023    
    40.00   1.4146    
    41.00   1.3321    
    42.00   1.2545    
    43.00   1.1817    
    44.00   1.1133    
    45.00   1.0491    
    46.00  0.98877    
    47.00  0.93217    
    48.00  0.87908    
    49.00  0.82926    
    50.00  0.78251    
    51.00  0.73864    
    52.00  0.69748    
    53.00  0.65887    
    54.00  0.62264    
    55.00  0.58864    
    56.00  0.55673    
    57.00  0.52678    
    58.00  0.49866    
    59.00  0.47227    
    60.00  0.44749    
    61.00  0.42422    
    62.00  0.40236    
    63.00  0.38182    
    64.00  0.36254    
    65.00  0.34442    
    66.00  0.32739    
    67.00  0.31139    
    68.00  0.29635    
    69.00  0.28222    
    70.00  0.26894    
    71.00  0.25645    
    72.00  0.24472    
    73.00  0.23369    
    74.00  0.22333    
    75.00  0.21359    
    76.00  0.20444    
    77.00  0.19585    
    78.00  0.18778    
    79.00  0.18020    
    80.00  0.17309    
    81.00  0.16641    
    82.00  0.16015    
    83.00  0.15429    
    84.00  0.14879    
    85.00  0.14364    
    86.00  0.13882    
    87.00  0.13431    
    88.00  0.13010    
    89.00  0.12617    
    90.00  0.12250    
    91.00  0.11908    
    92.00  0.11590    
    93.00  0.11294    
    94.00  0.11020    
    95.00  0.10766    
    96.00  0.10532    
    97.00  0.10316    
    98.00  0.10117    
    99.00  0.99354E-01
   100.00  0.97698E-01
   101.00  0.96196E-01
   102.00  0.94844E-01
   103.00  0.93639E-01
   104.00  0.92575E-01
   105.00  0.91649E-01
   106.00  0.90860E-01
   107.00  0.90208E-01
   108.00  0.89691E-01
   109.00  0.89310E-01
   110.00  0.89068E-01
   111.00  0.88966E-01
   112.00  0.89010E-01
   113.00  0.89202E-01
   114.00  0.89550E-01
   115.00  0.90060E-01
   116.00  0.90740E-01
   117.00  0.91600E-01
   118.00  0.92648E-01
   119.00  0.93897E-01
   120.00  0.95359E-01
   121.00  0.97045E-01
   122.00  0.98971E-01
   123.00  0.10115    
   124.00  0.10360    
   125.00  0.10633    
   126.00  0.10936    
   127.00  0.11270    
   128.00  0.11637    
   129.00  0.12038    
   130.00  0.12474    
   131.00  0.12946    
   132.00  0.13454    
   133.00  0.13997    
   134.00  0.14576    
   135.00  0.15189    
   136.00  0.15834    
   137.00  0.16507    
   138.00  0.17205    
   139.00  0.17921    
   140.00  0.18651    
   141.00  0.19387    
   142.00  0.20120    
   143.00  0.20841    
   144.00  0.21540    
   145.00  0.22208    
   146.00  0.22835    
   147.00  0.23412    
   148.00  0.23930    
   149.00  0.24386    
   150.00  0.24776    
   151.00  0.25103    
   152.00  0.25374    
   153.00  0.25602    
   154.00  0.25808    
   155.00  0.26018    
   156.00  0.26268    
   157.00  0.26602    
   158.00  0.27070    
   159.00  0.27725    
   160.00  0.28621    
   161.00  0.29802    
   162.00  0.31291    
   163.00  0.33074    
   164.00  0.35080    
   165.00  0.37163    
   166.00  0.39091    
   167.00  0.40559    
   168.00  0.41220    
   169.00  0.40764    
   170.00  0.39035    
   171.00  0.36151    
   172.00  0.32597    
   173.00  0.29220    
   174.00  0.27085    
   175.00  0.27172    
   176.00  0.29999    
   177.00  0.35245    
   178.00  0.41545    
   179.00  0.46743    
   180.00  0.48764    
 |--------|------------|
0.460000     micron = Wavelength
 2.54331     = Extinction efficiency (Q)
 2.54331     = Scattering efficiency (Qs)
 0.00000     = Absorption efficiency (Qa)
 25.7699     = Lidar ratio
 1.56983     micron^2 = <b> = Average surface area per particle
 3.99255     microns^2 = Extinction cross section (C)
 3.99255     microns^2 = Scattering cross section (Cs)
 0.00000     microns^2 = Absorption cross section (Ca)
 |----------------------------------------------------|
 | COMMENTAIRES:                                      |
 |----------------------------------------------------|
 |   -Cross section / <b> should = efficiency         |
 |    is independant of the normalisation of dN/dx    |
 |   -The integral of the phase fct / 4 pi over all   |
 |    directions (solid angle) = 1.                   |
 |   -The volume coefficient (k) is equal to C * N    |
 |      = cross section * Number density              |
 |      typical units: [um^2]*[particles/cm^3] =      |
 |      [10^-3 km-1]                                  |
 |      N = M/(d*4/3*pi*r^3) where d is the density   |
 |      of particle, M is the mass per unit volume    |
 |      and 4/3*pi*r^3 is the average volume  of a    |
 |      particle.                                     |
 |      typical units:  M -> [ug/m^3], d -> [g/cm^3]  |
 |                      r -> [um]                     |
 |      Lidar ratio= 4 pi Qe / phase_fct(180)*Qs      |
 |----------------------------------------------------|
