 |--------|------------|
 | ANGLE  |  PHASE FCT |
 |--------|------------|
     0.00   35.317    
     1.00   35.126    
     2.00   34.563    
     3.00   33.657    
     4.00   32.454    
     5.00   31.005    
     6.00   29.372    
     7.00   27.612    
     8.00   25.779    
     9.00   23.921    
    10.00   22.079    
    11.00   20.284    
    12.00   18.561    
    13.00   16.928    
    14.00   15.395    
    15.00   13.970    
    16.00   12.654    
    17.00   11.447    
    18.00   10.345    
    19.00   9.3431    
    20.00   8.4364    
    21.00   7.6179    
    22.00   6.8808    
    23.00   6.2182    
    24.00   5.6235    
    25.00   5.0903    
    26.00   4.6124    
    27.00   4.1844    
    28.00   3.8009    
    29.00   3.4574    
    30.00   3.1494    
    31.00   2.8731    
    32.00   2.6250    
    33.00   2.4021    
    34.00   2.2016    
    35.00   2.0209    
    36.00   1.8579    
    37.00   1.7106    
    38.00   1.5774    
    39.00   1.4568    
    40.00   1.3473    
    41.00   1.2478    
    42.00   1.1572    
    43.00   1.0746    
    44.00  0.99926    
    45.00  0.93035    
    46.00  0.86727    
    47.00  0.80943    
    48.00  0.75633    
    49.00  0.70752    
    50.00  0.66258    
    51.00  0.62118    
    52.00  0.58297    
    53.00  0.54767    
    54.00  0.51503    
    55.00  0.48482    
    56.00  0.45683    
    57.00  0.43086    
    58.00  0.40675    
    59.00  0.38435    
    60.00  0.36352    
    61.00  0.34414    
    62.00  0.32608    
    63.00  0.30925    
    64.00  0.29355    
    65.00  0.27890    
    66.00  0.26522    
    67.00  0.25243    
    68.00  0.24047    
    69.00  0.22928    
    70.00  0.21881    
    71.00  0.20901    
    72.00  0.19982    
    73.00  0.19121    
    74.00  0.18313    
    75.00  0.17556    
    76.00  0.16845    
    77.00  0.16178    
    78.00  0.15552    
    79.00  0.14964    
    80.00  0.14411    
    81.00  0.13892    
    82.00  0.13404    
    83.00  0.12946    
    84.00  0.12515    
    85.00  0.12110    
    86.00  0.11730    
    87.00  0.11372    
    88.00  0.11036    
    89.00  0.10721    
    90.00  0.10425    
    91.00  0.10148    
    92.00  0.98871E-01
    93.00  0.96431E-01
    94.00  0.94147E-01
    95.00  0.92011E-01
    96.00  0.90015E-01
    97.00  0.88154E-01
    98.00  0.86421E-01
    99.00  0.84811E-01
   100.00  0.83318E-01
   101.00  0.81938E-01
   102.00  0.80667E-01
   103.00  0.79501E-01
   104.00  0.78436E-01
   105.00  0.77469E-01
   106.00  0.76597E-01
   107.00  0.75817E-01
   108.00  0.75129E-01
   109.00  0.74528E-01
   110.00  0.74015E-01
   111.00  0.73587E-01
   112.00  0.73243E-01
   113.00  0.72983E-01
   114.00  0.72804E-01
   115.00  0.72708E-01
   116.00  0.72694E-01
   117.00  0.72761E-01
   118.00  0.72909E-01
   119.00  0.73140E-01
   120.00  0.73452E-01
   121.00  0.73847E-01
   122.00  0.74326E-01
   123.00  0.74888E-01
   124.00  0.75535E-01
   125.00  0.76268E-01
   126.00  0.77088E-01
   127.00  0.77995E-01
   128.00  0.78991E-01
   129.00  0.80077E-01
   130.00  0.81254E-01
   131.00  0.82523E-01
   132.00  0.83885E-01
   133.00  0.85341E-01
   134.00  0.86891E-01
   135.00  0.88537E-01
   136.00  0.90279E-01
   137.00  0.92116E-01
   138.00  0.94051E-01
   139.00  0.96081E-01
   140.00  0.98207E-01
   141.00  0.10043    
   142.00  0.10274    
   143.00  0.10515    
   144.00  0.10765    
   145.00  0.11024    
   146.00  0.11291    
   147.00  0.11565    
   148.00  0.11847    
   149.00  0.12135    
   150.00  0.12427    
   151.00  0.12722    
   152.00  0.13018    
   153.00  0.13311    
   154.00  0.13597    
   155.00  0.13871    
   156.00  0.14127    
   157.00  0.14356    
   158.00  0.14548    
   159.00  0.14693    
   160.00  0.14778    
   161.00  0.14790    
   162.00  0.14714    
   163.00  0.14538    
   164.00  0.14255    
   165.00  0.13860    
   166.00  0.13360    
   167.00  0.12770    
   168.00  0.12121    
   169.00  0.11455    
   170.00  0.10828    
   171.00  0.10302    
   172.00  0.99345E-01
   173.00  0.97728E-01
   174.00  0.98375E-01
   175.00  0.10114    
   176.00  0.10550    
   177.00  0.11057    
   178.00  0.11529    
   179.00  0.11863    
   180.00  0.11983    
 |--------|------------|
0.730000     micron = Wavelength
 3.09036     = Extinction efficiency (Q)
 3.09036     = Scattering efficiency (Qs)
 0.00000     = Absorption efficiency (Qa)
 104.865     = Lidar ratio
0.917850     micron^2 = <b> = Average surface area per particle
 2.83648     microns^2 = Extinction cross section (C)
 2.83648     microns^2 = Scattering cross section (Cs)
0.946621E-15 microns^2 = Absorption cross section (Ca)
 |----------------------------------------------------|
 | COMMENTAIRES:                                      |
 |----------------------------------------------------|
 |   -Cross section / <b> should = efficiency         |
 |    is independant of the normalisation of dN/dx    |
 |   -The integral of the phase fct / 4 pi over all   |
 |    directions (solid angle) = 1.                   |
 |   -The volume coefficient (k) is equal to C * N    |
 |      = cross section * Number density              |
 |      typical units: [um^2]*[particles/cm^3] =      |
 |      [10^-3 km-1]                                  |
 |      N = M/(d*4/3*pi*r^3) where d is the density   |
 |      of particle, M is the mass per unit volume    |
 |      and 4/3*pi*r^3 is the average volume  of a    |
 |      particle.                                     |
 |      typical units:  M -> [ug/m^3], d -> [g/cm^3]  |
 |                      r -> [um]                     |
 |      Lidar ratio= 4 pi Qe / phase_fct(180)*Qs      |
 |----------------------------------------------------|
