 |--------|------------|
 | ANGLE  |  PHASE FCT |
 |--------|------------|
     0.00   27.085    
     1.00   26.986    
     2.00   26.690    
     3.00   26.209    
     4.00   25.557    
     5.00   24.756    
     6.00   23.828    
     7.00   22.799    
     8.00   21.693    
     9.00   20.534    
    10.00   19.345    
    11.00   18.145    
    12.00   16.953    
    13.00   15.783    
    14.00   14.646    
    15.00   13.552    
    16.00   12.508    
    17.00   11.519    
    18.00   10.587    
    19.00   9.7149    
    20.00   8.9021    
    21.00   8.1479    
    22.00   7.4507    
    23.00   6.8085    
    24.00   6.2185    
    25.00   5.6779    
    26.00   5.1837    
    27.00   4.7326    
    28.00   4.3216    
    29.00   3.9476    
    30.00   3.6076    
    31.00   3.2988    
    32.00   3.0185    
    33.00   2.7642    
    34.00   2.5335    
    35.00   2.3242    
    36.00   2.1344    
    37.00   1.9621    
    38.00   1.8058    
    39.00   1.6638    
    40.00   1.5348    
    41.00   1.4175    
    42.00   1.3108    
    43.00   1.2137    
    44.00   1.1251    
    45.00   1.0444    
    46.00  0.97061    
    47.00  0.90319    
    48.00  0.84150    
    49.00  0.78499    
    50.00  0.73317    
    51.00  0.68560    
    52.00  0.64188    
    53.00  0.60166    
    54.00  0.56461    
    55.00  0.53044    
    56.00  0.49890    
    57.00  0.46976    
    58.00  0.44280    
    59.00  0.41783    
    60.00  0.39469    
    61.00  0.37322    
    62.00  0.35327    
    63.00  0.33473    
    64.00  0.31748    
    65.00  0.30141    
    66.00  0.28644    
    67.00  0.27247    
    68.00  0.25943    
    69.00  0.24724    
    70.00  0.23585    
    71.00  0.22520    
    72.00  0.21522    
    73.00  0.20588    
    74.00  0.19712    
    75.00  0.18890    
    76.00  0.18120    
    77.00  0.17396    
    78.00  0.16717    
    79.00  0.16078    
    80.00  0.15478    
    81.00  0.14914    
    82.00  0.14383    
    83.00  0.13884    
    84.00  0.13415    
    85.00  0.12973    
    86.00  0.12557    
    87.00  0.12165    
    88.00  0.11797    
    89.00  0.11450    
    90.00  0.11124    
    91.00  0.10817    
    92.00  0.10528    
    93.00  0.10257    
    94.00  0.10002    
    95.00  0.97625E-01
    96.00  0.95380E-01
    97.00  0.93276E-01
    98.00  0.91306E-01
    99.00  0.89464E-01
   100.00  0.87746E-01
   101.00  0.86144E-01
   102.00  0.84655E-01
   103.00  0.83275E-01
   104.00  0.81999E-01
   105.00  0.80824E-01
   106.00  0.79746E-01
   107.00  0.78763E-01
   108.00  0.77872E-01
   109.00  0.77070E-01
   110.00  0.76355E-01
   111.00  0.75725E-01
   112.00  0.75180E-01
   113.00  0.74716E-01
   114.00  0.74334E-01
   115.00  0.74033E-01
   116.00  0.73810E-01
   117.00  0.73667E-01
   118.00  0.73602E-01
   119.00  0.73616E-01
   120.00  0.73708E-01
   121.00  0.73880E-01
   122.00  0.74130E-01
   123.00  0.74460E-01
   124.00  0.74870E-01
   125.00  0.75362E-01
   126.00  0.75935E-01
   127.00  0.76592E-01
   128.00  0.77332E-01
   129.00  0.78158E-01
   130.00  0.79070E-01
   131.00  0.80069E-01
   132.00  0.81157E-01
   133.00  0.82335E-01
   134.00  0.83603E-01
   135.00  0.84963E-01
   136.00  0.86414E-01
   137.00  0.87957E-01
   138.00  0.89591E-01
   139.00  0.91315E-01
   140.00  0.93128E-01
   141.00  0.95028E-01
   142.00  0.97009E-01
   143.00  0.99068E-01
   144.00  0.10120    
   145.00  0.10339    
   146.00  0.10563    
   147.00  0.10792    
   148.00  0.11022    
   149.00  0.11253    
   150.00  0.11482    
   151.00  0.11705    
   152.00  0.11921    
   153.00  0.12125    
   154.00  0.12313    
   155.00  0.12480    
   156.00  0.12622    
   157.00  0.12733    
   158.00  0.12807    
   159.00  0.12840    
   160.00  0.12827    
   161.00  0.12764    
   162.00  0.12652    
   163.00  0.12489    
   164.00  0.12281    
   165.00  0.12035    
   166.00  0.11764    
   167.00  0.11485    
   168.00  0.11217    
   169.00  0.10984    
   170.00  0.10808    
   171.00  0.10711    
   172.00  0.10706    
   173.00  0.10801    
   174.00  0.10987    
   175.00  0.11245    
   176.00  0.11543    
   177.00  0.11840    
   178.00  0.12093    
   179.00  0.12262    
   180.00  0.12322    
 |--------|------------|
0.630000     micron = Wavelength
 2.89883     = Extinction efficiency (Q)
 2.89883     = Scattering efficiency (Qs)
 0.00000     = Absorption efficiency (Qa)
 101.983     = Lidar ratio
0.437499     micron^2 = <b> = Average surface area per particle
 1.26824     microns^2 = Extinction cross section (C)
 1.26824     microns^2 = Scattering cross section (Cs)
 0.00000     microns^2 = Absorption cross section (Ca)
 |----------------------------------------------------|
 | COMMENTAIRES:                                      |
 |----------------------------------------------------|
 |   -Cross section / <b> should = efficiency         |
 |    is independant of the normalisation of dN/dx    |
 |   -The integral of the phase fct / 4 pi over all   |
 |    directions (solid angle) = 1.                   |
 |   -The volume coefficient (k) is equal to C * N    |
 |      = cross section * Number density              |
 |      typical units: [um^2]*[particles/cm^3] =      |
 |      [10^-3 km-1]                                  |
 |      N = M/(d*4/3*pi*r^3) where d is the density   |
 |      of particle, M is the mass per unit volume    |
 |      and 4/3*pi*r^3 is the average volume  of a    |
 |      particle.                                     |
 |      typical units:  M -> [ug/m^3], d -> [g/cm^3]  |
 |                      r -> [um]                     |
 |      Lidar ratio= 4 pi Qe / phase_fct(180)*Qs      |
 |----------------------------------------------------|
