 |--------|------------|
 | ANGLE  |  PHASE FCT |
 |--------|------------|
     0.00   13.860    
     1.00   13.838    
     2.00   13.773    
     3.00   13.664    
     4.00   13.515    
     5.00   13.326    
     6.00   13.100    
     7.00   12.841    
     8.00   12.550    
     9.00   12.232    
    10.00   11.890    
    11.00   11.528    
    12.00   11.148    
    13.00   10.756    
    14.00   10.353    
    15.00   9.9433    
    16.00   9.5301    
    17.00   9.1160    
    18.00   8.7035    
    19.00   8.2950    
    20.00   7.8924    
    21.00   7.4976    
    22.00   7.1119    
    23.00   6.7368    
    24.00   6.3733    
    25.00   6.0222    
    26.00   5.6840    
    27.00   5.3594    
    28.00   5.0485    
    29.00   4.7515    
    30.00   4.4685    
    31.00   4.1994    
    32.00   3.9439    
    33.00   3.7018    
    34.00   3.4728    
    35.00   3.2565    
    36.00   3.0526    
    37.00   2.8605    
    38.00   2.6798    
    39.00   2.5100    
    40.00   2.3506    
    41.00   2.2011    
    42.00   2.0610    
    43.00   1.9299    
    44.00   1.8071    
    45.00   1.6924    
    46.00   1.5851    
    47.00   1.4849    
    48.00   1.3913    
    49.00   1.3040    
    50.00   1.2225    
    51.00   1.1465    
    52.00   1.0756    
    53.00   1.0095    
    54.00  0.94790    
    55.00  0.89045    
    56.00  0.83689    
    57.00  0.78696    
    58.00  0.74042    
    59.00  0.69703    
    60.00  0.65658    
    61.00  0.61886    
    62.00  0.58368    
    63.00  0.55087    
    64.00  0.52025    
    65.00  0.49169    
    66.00  0.46503    
    67.00  0.44014    
    68.00  0.41690    
    69.00  0.39519    
    70.00  0.37490    
    71.00  0.35593    
    72.00  0.33820    
    73.00  0.32162    
    74.00  0.30610    
    75.00  0.29158    
    76.00  0.27798    
    77.00  0.26524    
    78.00  0.25330    
    79.00  0.24212    
    80.00  0.23163    
    81.00  0.22179    
    82.00  0.21255    
    83.00  0.20389    
    84.00  0.19575    
    85.00  0.18811    
    86.00  0.18093    
    87.00  0.17419    
    88.00  0.16784    
    89.00  0.16188    
    90.00  0.15628    
    91.00  0.15101    
    92.00  0.14605    
    93.00  0.14138    
    94.00  0.13700    
    95.00  0.13287    
    96.00  0.12899    
    97.00  0.12534    
    98.00  0.12190    
    99.00  0.11868    
   100.00  0.11565    
   101.00  0.11280    
   102.00  0.11013    
   103.00  0.10762    
   104.00  0.10527    
   105.00  0.10307    
   106.00  0.10101    
   107.00  0.99087E-01
   108.00  0.97294E-01
   109.00  0.95624E-01
   110.00  0.94072E-01
   111.00  0.92634E-01
   112.00  0.91304E-01
   113.00  0.90078E-01
   114.00  0.88953E-01
   115.00  0.87925E-01
   116.00  0.86991E-01
   117.00  0.86146E-01
   118.00  0.85390E-01
   119.00  0.84718E-01
   120.00  0.84128E-01
   121.00  0.83618E-01
   122.00  0.83186E-01
   123.00  0.82829E-01
   124.00  0.82546E-01
   125.00  0.82336E-01
   126.00  0.82196E-01
   127.00  0.82124E-01
   128.00  0.82120E-01
   129.00  0.82182E-01
   130.00  0.82309E-01
   131.00  0.82498E-01
   132.00  0.82749E-01
   133.00  0.83060E-01
   134.00  0.83430E-01
   135.00  0.83858E-01
   136.00  0.84341E-01
   137.00  0.84880E-01
   138.00  0.85471E-01
   139.00  0.86114E-01
   140.00  0.86807E-01
   141.00  0.87548E-01
   142.00  0.88336E-01
   143.00  0.89168E-01
   144.00  0.90043E-01
   145.00  0.90959E-01
   146.00  0.91914E-01
   147.00  0.92905E-01
   148.00  0.93933E-01
   149.00  0.94993E-01
   150.00  0.96086E-01
   151.00  0.97209E-01
   152.00  0.98361E-01
   153.00  0.99544E-01
   154.00  0.10075    
   155.00  0.10199    
   156.00  0.10326    
   157.00  0.10456    
   158.00  0.10589    
   159.00  0.10726    
   160.00  0.10866    
   161.00  0.11010    
   162.00  0.11159    
   163.00  0.11313    
   164.00  0.11471    
   165.00  0.11634    
   166.00  0.11802    
   167.00  0.11974    
   168.00  0.12149    
   169.00  0.12327    
   170.00  0.12505    
   171.00  0.12682    
   172.00  0.12854    
   173.00  0.13019    
   174.00  0.13172    
   175.00  0.13311    
   176.00  0.13431    
   177.00  0.13528    
   178.00  0.13601    
   179.00  0.13645    
   180.00  0.13660    
 |--------|------------|
0.720000     micron = Wavelength
 1.57266     = Extinction efficiency (Q)
 1.57266     = Scattering efficiency (Qs)
 0.00000     = Absorption efficiency (Qa)
 91.9936     = Lidar ratio
0.180223     micron^2 = <b> = Average surface area per particle
0.283429     microns^2 = Extinction cross section (C)
0.283429     microns^2 = Scattering cross section (Cs)
 0.00000     microns^2 = Absorption cross section (Ca)
 |----------------------------------------------------|
 | COMMENTAIRES:                                      |
 |----------------------------------------------------|
 |   -Cross section / <b> should = efficiency         |
 |    is independant of the normalisation of dN/dx    |
 |   -The integral of the phase fct / 4 pi over all   |
 |    directions (solid angle) = 1.                   |
 |   -The volume coefficient (k) is equal to C * N    |
 |      = cross section * Number density              |
 |      typical units: [um^2]*[particles/cm^3] =      |
 |      [10^-3 km-1]                                  |
 |      N = M/(d*4/3*pi*r^3) where d is the density   |
 |      of particle, M is the mass per unit volume    |
 |      and 4/3*pi*r^3 is the average volume  of a    |
 |      particle.                                     |
 |      typical units:  M -> [ug/m^3], d -> [g/cm^3]  |
 |                      r -> [um]                     |
 |      Lidar ratio= 4 pi Qe / phase_fct(180)*Qs      |
 |----------------------------------------------------|
