 |--------|------------|
 | ANGLE  |  PHASE FCT |
 |--------|------------|
     0.00   10.717    
     1.00   10.704    
     2.00   10.664    
     3.00   10.598    
     4.00   10.506    
     5.00   10.390    
     6.00   10.250    
     7.00   10.089    
     8.00   9.9073    
     9.00   9.7072    
    10.00   9.4904    
    11.00   9.2587    
    12.00   9.0142    
    13.00   8.7588    
    14.00   8.4943    
    15.00   8.2228    
    16.00   7.9459    
    17.00   7.6654    
    18.00   7.3830    
    19.00   7.1000    
    20.00   6.8179    
    21.00   6.5380    
    22.00   6.2614    
    23.00   5.9891    
    24.00   5.7219    
    25.00   5.4606    
    26.00   5.2060    
    27.00   4.9584    
    28.00   4.7184    
    29.00   4.4863    
    30.00   4.2623    
    31.00   4.0467    
    32.00   3.8395    
    33.00   3.6407    
    34.00   3.4505    
    35.00   3.2686    
    36.00   3.0950    
    37.00   2.9295    
    38.00   2.7720    
    39.00   2.6223    
    40.00   2.4800    
    41.00   2.3451    
    42.00   2.2173    
    43.00   2.0962    
    44.00   1.9816    
    45.00   1.8733    
    46.00   1.7710    
    47.00   1.6744    
    48.00   1.5832    
    49.00   1.4973    
    50.00   1.4162    
    51.00   1.3398    
    52.00   1.2679    
    53.00   1.2001    
    54.00   1.1363    
    55.00   1.0763    
    56.00   1.0198    
    57.00  0.96668    
    58.00  0.91669    
    59.00  0.86966    
    60.00  0.82542    
    61.00  0.78382    
    62.00  0.74469    
    63.00  0.70788    
    64.00  0.67327    
    65.00  0.64071    
    66.00  0.61007    
    67.00  0.58125    
    68.00  0.55413    
    69.00  0.52860    
    70.00  0.50458    
    71.00  0.48196    
    72.00  0.46067    
    73.00  0.44062    
    74.00  0.42172    
    75.00  0.40393    
    76.00  0.38716    
    77.00  0.37135    
    78.00  0.35645    
    79.00  0.34240    
    80.00  0.32915    
    81.00  0.31665    
    82.00  0.30485    
    83.00  0.29372    
    84.00  0.28322    
    85.00  0.27330    
    86.00  0.26395    
    87.00  0.25511    
    88.00  0.24676    
    89.00  0.23888    
    90.00  0.23144    
    91.00  0.22442    
    92.00  0.21778    
    93.00  0.21152    
    94.00  0.20560    
    95.00  0.20002    
    96.00  0.19475    
    97.00  0.18978    
    98.00  0.18509    
    99.00  0.18067    
   100.00  0.17651    
   101.00  0.17259    
   102.00  0.16890    
   103.00  0.16543    
   104.00  0.16218    
   105.00  0.15912    
   106.00  0.15626    
   107.00  0.15358    
   108.00  0.15108    
   109.00  0.14875    
   110.00  0.14658    
   111.00  0.14456    
   112.00  0.14270    
   113.00  0.14098    
   114.00  0.13940    
   115.00  0.13795    
   116.00  0.13663    
   117.00  0.13544    
   118.00  0.13437    
   119.00  0.13341    
   120.00  0.13256    
   121.00  0.13182    
   122.00  0.13119    
   123.00  0.13065    
   124.00  0.13021    
   125.00  0.12987    
   126.00  0.12961    
   127.00  0.12943    
   128.00  0.12934    
   129.00  0.12932    
   130.00  0.12938    
   131.00  0.12951    
   132.00  0.12970    
   133.00  0.12995    
   134.00  0.13025    
   135.00  0.13061    
   136.00  0.13102    
   137.00  0.13147    
   138.00  0.13196    
   139.00  0.13249    
   140.00  0.13304    
   141.00  0.13362    
   142.00  0.13423    
   143.00  0.13486    
   144.00  0.13550    
   145.00  0.13616    
   146.00  0.13683    
   147.00  0.13753    
   148.00  0.13823    
   149.00  0.13896    
   150.00  0.13972    
   151.00  0.14050    
   152.00  0.14133    
   153.00  0.14221    
   154.00  0.14315    
   155.00  0.14417    
   156.00  0.14528    
   157.00  0.14650    
   158.00  0.14786    
   159.00  0.14936    
   160.00  0.15104    
   161.00  0.15290    
   162.00  0.15497    
   163.00  0.15724    
   164.00  0.15973    
   165.00  0.16245    
   166.00  0.16536    
   167.00  0.16847    
   168.00  0.17173    
   169.00  0.17512    
   170.00  0.17857    
   171.00  0.18203    
   172.00  0.18544    
   173.00  0.18870    
   174.00  0.19175    
   175.00  0.19450    
   176.00  0.19687    
   177.00  0.19880    
   178.00  0.20022    
   179.00  0.20109    
   180.00  0.20138    
 |--------|------------|
0.616000     micron = Wavelength
 2.15921     = Extinction efficiency (Q)
 2.15921     = Scattering efficiency (Qs)
 0.00000     = Absorption efficiency (Qa)
 62.4000     = Lidar ratio
0.110755     micron^2 = <b> = Average surface area per particle
0.239144     microns^2 = Extinction cross section (C)
0.239144     microns^2 = Scattering cross section (Cs)
0.842562E-16 microns^2 = Absorption cross section (Ca)
 |----------------------------------------------------|
 | COMMENTAIRES:                                      |
 |----------------------------------------------------|
 |   -Cross section / <b> should = efficiency         |
 |    is independant of the normalisation of dN/dx    |
 |   -The integral of the phase fct / 4 pi over all   |
 |    directions (solid angle) = 1.                   |
 |   -The volume coefficient (k) is equal to C * N    |
 |      = cross section * Number density              |
 |      typical units: [um^2]*[particles/cm^3] =      |
 |      [10^-3 km-1]                                  |
 |      N = M/(d*4/3*pi*r^3) where d is the density   |
 |      of particle, M is the mass per unit volume    |
 |      and 4/3*pi*r^3 is the average volume  of a    |
 |      particle.                                     |
 |      typical units:  M -> [ug/m^3], d -> [g/cm^3]  |
 |                      r -> [um]                     |
 |      Lidar ratio= 4 pi Qe / phase_fct(180)*Qs      |
 |----------------------------------------------------|
