 |--------|------------|
 | ANGLE  |  PHASE FCT |
 |--------|------------|
     0.00   34.029    
     1.00   33.852    
     2.00   33.331    
     3.00   32.492    
     4.00   31.373    
     5.00   30.024    
     6.00   28.499    
     7.00   26.849    
     8.00   25.124    
     9.00   23.370    
    10.00   21.625    
    11.00   19.918    
    12.00   18.273    
    13.00   16.707    
    14.00   15.233    
    15.00   13.856    
    16.00   12.580    
    17.00   11.406    
    18.00   10.330    
    19.00   9.3494    
    20.00   8.4586    
    21.00   7.6520    
    22.00   6.9236    
    23.00   6.2670    
    24.00   5.6760    
    25.00   5.1449    
    26.00   4.6678    
    27.00   4.2395    
    28.00   3.8551    
    29.00   3.5100    
    30.00   3.2001    
    31.00   2.9217    
    32.00   2.6713    
    33.00   2.4461    
    34.00   2.2432    
    35.00   2.0602    
    36.00   1.8950    
    37.00   1.7456    
    38.00   1.6103    
    39.00   1.4877    
    40.00   1.3764    
    41.00   1.2752    
    42.00   1.1831    
    43.00   1.0990    
    44.00   1.0223    
    45.00  0.95208    
    46.00  0.88780    
    47.00  0.82885    
    48.00  0.77471    
    49.00  0.72493    
    50.00  0.67909    
    51.00  0.63685    
    52.00  0.59785    
    53.00  0.56183    
    54.00  0.52850    
    55.00  0.49765    
    56.00  0.46905    
    57.00  0.44252    
    58.00  0.41788    
    59.00  0.39499    
    60.00  0.37368    
    61.00  0.35385    
    62.00  0.33538    
    63.00  0.31816    
    64.00  0.30209    
    65.00  0.28708    
    66.00  0.27306    
    67.00  0.25996    
    68.00  0.24770    
    69.00  0.23623    
    70.00  0.22549    
    71.00  0.21543    
    72.00  0.20600    
    73.00  0.19716    
    74.00  0.18887    
    75.00  0.18108    
    76.00  0.17378    
    77.00  0.16692    
    78.00  0.16047    
    79.00  0.15442    
    80.00  0.14873    
    81.00  0.14338    
    82.00  0.13835    
    83.00  0.13362    
    84.00  0.12918    
    85.00  0.12500    
    86.00  0.12107    
    87.00  0.11738    
    88.00  0.11391    
    89.00  0.11064    
    90.00  0.10758    
    91.00  0.10470    
    92.00  0.10200    
    93.00  0.99470E-01
    94.00  0.97098E-01
    95.00  0.94877E-01
    96.00  0.92801E-01
    97.00  0.90862E-01
    98.00  0.89055E-01
    99.00  0.87374E-01
   100.00  0.85812E-01
   101.00  0.84368E-01
   102.00  0.83035E-01
   103.00  0.81809E-01
   104.00  0.80687E-01
   105.00  0.79666E-01
   106.00  0.78742E-01
   107.00  0.77914E-01
   108.00  0.77179E-01
   109.00  0.76534E-01
   110.00  0.75979E-01
   111.00  0.75511E-01
   112.00  0.75130E-01
   113.00  0.74835E-01
   114.00  0.74625E-01
   115.00  0.74499E-01
   116.00  0.74457E-01
   117.00  0.74499E-01
   118.00  0.74626E-01
   119.00  0.74837E-01
   120.00  0.75133E-01
   121.00  0.75515E-01
   122.00  0.75984E-01
   123.00  0.76539E-01
   124.00  0.77184E-01
   125.00  0.77918E-01
   126.00  0.78743E-01
   127.00  0.79661E-01
   128.00  0.80673E-01
   129.00  0.81780E-01
   130.00  0.82984E-01
   131.00  0.84287E-01
   132.00  0.85690E-01
   133.00  0.87195E-01
   134.00  0.88803E-01
   135.00  0.90515E-01
   136.00  0.92334E-01
   137.00  0.94258E-01
   138.00  0.96291E-01
   139.00  0.98431E-01
   140.00  0.10068    
   141.00  0.10304    
   142.00  0.10550    
   143.00  0.10807    
   144.00  0.11074    
   145.00  0.11351    
   146.00  0.11638    
   147.00  0.11934    
   148.00  0.12237    
   149.00  0.12546    
   150.00  0.12861    
   151.00  0.13177    
   152.00  0.13493    
   153.00  0.13805    
   154.00  0.14107    
   155.00  0.14395    
   156.00  0.14659    
   157.00  0.14892    
   158.00  0.15084    
   159.00  0.15221    
   160.00  0.15293    
   161.00  0.15284    
   162.00  0.15183    
   163.00  0.14978    
   164.00  0.14664    
   165.00  0.14240    
   166.00  0.13714    
   167.00  0.13106    
   168.00  0.12449    
   169.00  0.11787    
   170.00  0.11177    
   171.00  0.10676    
   172.00  0.10341    
   173.00  0.10213    
   174.00  0.10307    
   175.00  0.10604    
   176.00  0.11049    
   177.00  0.11557    
   178.00  0.12023    
   179.00  0.12351    
   180.00  0.12469    
 |--------|------------|
0.616000     micron = Wavelength
 3.09504     = Extinction efficiency (Q)
 3.09504     = Scattering efficiency (Qs)
 0.00000     = Absorption efficiency (Qa)
 100.782     = Lidar ratio
0.625715     micron^2 = <b> = Average surface area per particle
 1.93661     microns^2 = Extinction cross section (C)
 1.93661     microns^2 = Scattering cross section (Cs)
0.337025E-15 microns^2 = Absorption cross section (Ca)
 |----------------------------------------------------|
 | COMMENTAIRES:                                      |
 |----------------------------------------------------|
 |   -Cross section / <b> should = efficiency         |
 |    is independant of the normalisation of dN/dx    |
 |   -The integral of the phase fct / 4 pi over all   |
 |    directions (solid angle) = 1.                   |
 |   -The volume coefficient (k) is equal to C * N    |
 |      = cross section * Number density              |
 |      typical units: [um^2]*[particles/cm^3] =      |
 |      [10^-3 km-1]                                  |
 |      N = M/(d*4/3*pi*r^3) where d is the density   |
 |      of particle, M is the mass per unit volume    |
 |      and 4/3*pi*r^3 is the average volume  of a    |
 |      particle.                                     |
 |      typical units:  M -> [ug/m^3], d -> [g/cm^3]  |
 |                      r -> [um]                     |
 |      Lidar ratio= 4 pi Qe / phase_fct(180)*Qs      |
 |----------------------------------------------------|
