 |--------|------------|
 | ANGLE  |  PHASE FCT |
 |--------|------------|
     0.00   11.809    
     1.00   11.793    
     2.00   11.747    
     3.00   11.669    
     4.00   11.562    
     5.00   11.427    
     6.00   11.265    
     7.00   11.077    
     8.00   10.866    
     9.00   10.633    
    10.00   10.382    
    11.00   10.114    
    12.00   9.8309    
    13.00   9.5361    
    14.00   9.2315    
    15.00   8.9193    
    16.00   8.6016    
    17.00   8.2804    
    18.00   7.9577    
    19.00   7.6352    
    20.00   7.3144    
    21.00   6.9969    
    22.00   6.6839    
    23.00   6.3765    
    24.00   6.0758    
    25.00   5.7825    
    26.00   5.4973    
    27.00   5.2208    
    28.00   4.9535    
    29.00   4.6957    
    30.00   4.4477    
    31.00   4.2095    
    32.00   3.9813    
    33.00   3.7630    
    34.00   3.5546    
    35.00   3.3559    
    36.00   3.1668    
    37.00   2.9870    
    38.00   2.8164    
    39.00   2.6546    
    40.00   2.5015    
    41.00   2.3566    
    42.00   2.2196    
    43.00   2.0903    
    44.00   1.9683    
    45.00   1.8533    
    46.00   1.7450    
    47.00   1.6430    
    48.00   1.5471    
    49.00   1.4568    
    50.00   1.3720    
    51.00   1.2923    
    52.00   1.2175    
    53.00   1.1472    
    54.00   1.0813    
    55.00   1.0194    
    56.00  0.96141    
    57.00  0.90698    
    58.00  0.85595    
    59.00  0.80810    
    60.00  0.76324    
    61.00  0.72118    
    62.00  0.68176    
    63.00  0.64481    
    64.00  0.61018    
    65.00  0.57770    
    66.00  0.54727    
    67.00  0.51873    
    68.00  0.49197    
    69.00  0.46687    
    70.00  0.44334    
    71.00  0.42126    
    72.00  0.40055    
    73.00  0.38112    
    74.00  0.36288    
    75.00  0.34576    
    76.00  0.32969    
    77.00  0.31459    
    78.00  0.30041    
    79.00  0.28710    
    80.00  0.27458    
    81.00  0.26282    
    82.00  0.25176    
    83.00  0.24136    
    84.00  0.23158    
    85.00  0.22238    
    86.00  0.21372    
    87.00  0.20558    
    88.00  0.19791    
    89.00  0.19070    
    90.00  0.18390    
    91.00  0.17751    
    92.00  0.17149    
    93.00  0.16581    
    94.00  0.16047    
    95.00  0.15545    
    96.00  0.15071    
    97.00  0.14625    
    98.00  0.14206    
    99.00  0.13811    
   100.00  0.13440    
   101.00  0.13091    
   102.00  0.12762    
   103.00  0.12454    
   104.00  0.12164    
   105.00  0.11893    
   106.00  0.11638    
   107.00  0.11399    
   108.00  0.11176    
   109.00  0.10968    
   110.00  0.10774    
   111.00  0.10593    
   112.00  0.10426    
   113.00  0.10270    
   114.00  0.10126    
   115.00  0.99943E-01
   116.00  0.98731E-01
   117.00  0.97625E-01
   118.00  0.96621E-01
   119.00  0.95715E-01
   120.00  0.94904E-01
   121.00  0.94186E-01
   122.00  0.93558E-01
   123.00  0.93016E-01
   124.00  0.92560E-01
   125.00  0.92185E-01
   126.00  0.91891E-01
   127.00  0.91674E-01
   128.00  0.91534E-01
   129.00  0.91468E-01
   130.00  0.91475E-01
   131.00  0.91553E-01
   132.00  0.91700E-01
   133.00  0.91915E-01
   134.00  0.92196E-01
   135.00  0.92543E-01
   136.00  0.92953E-01
   137.00  0.93425E-01
   138.00  0.93958E-01
   139.00  0.94550E-01
   140.00  0.95201E-01
   141.00  0.95908E-01
   142.00  0.96670E-01
   143.00  0.97486E-01
   144.00  0.98355E-01
   145.00  0.99275E-01
   146.00  0.10025    
   147.00  0.10126    
   148.00  0.10233    
   149.00  0.10345    
   150.00  0.10461    
   151.00  0.10581    
   152.00  0.10706    
   153.00  0.10835    
   154.00  0.10969    
   155.00  0.11107    
   156.00  0.11249    
   157.00  0.11396    
   158.00  0.11547    
   159.00  0.11702    
   160.00  0.11862    
   161.00  0.12025    
   162.00  0.12193    
   163.00  0.12364    
   164.00  0.12539    
   165.00  0.12717    
   166.00  0.12896    
   167.00  0.13077    
   168.00  0.13258    
   169.00  0.13437    
   170.00  0.13613    
   171.00  0.13784    
   172.00  0.13946    
   173.00  0.14099    
   174.00  0.14238    
   175.00  0.14362    
   176.00  0.14467    
   177.00  0.14552    
   178.00  0.14614    
   179.00  0.14652    
   180.00  0.14665    
 |--------|------------|
0.680000     micron = Wavelength
 1.35426     = Extinction efficiency (Q)
 1.35426     = Scattering efficiency (Qs)
 0.00000     = Absorption efficiency (Qa)
 85.6895     = Lidar ratio
0.126655     micron^2 = <b> = Average surface area per particle
0.171524     microns^2 = Extinction cross section (C)
0.171524     microns^2 = Scattering cross section (Cs)
 0.00000     microns^2 = Absorption cross section (Ca)
 |----------------------------------------------------|
 | COMMENTAIRES:                                      |
 |----------------------------------------------------|
 |   -Cross section / <b> should = efficiency         |
 |    is independant of the normalisation of dN/dx    |
 |   -The integral of the phase fct / 4 pi over all   |
 |    directions (solid angle) = 1.                   |
 |   -The volume coefficient (k) is equal to C * N    |
 |      = cross section * Number density              |
 |      typical units: [um^2]*[particles/cm^3] =      |
 |      [10^-3 km-1]                                  |
 |      N = M/(d*4/3*pi*r^3) where d is the density   |
 |      of particle, M is the mass per unit volume    |
 |      and 4/3*pi*r^3 is the average volume  of a    |
 |      particle.                                     |
 |      typical units:  M -> [ug/m^3], d -> [g/cm^3]  |
 |                      r -> [um]                     |
 |      Lidar ratio= 4 pi Qe / phase_fct(180)*Qs      |
 |----------------------------------------------------|
