 |--------|------------|
 | ANGLE  |  PHASE FCT |
 |--------|------------|
     0.00   19.507    
     1.00   19.460    
     2.00   19.319    
     3.00   19.087    
     4.00   18.769    
     5.00   18.372    
     6.00   17.904    
     7.00   17.373    
     8.00   16.788    
     9.00   16.160    
    10.00   15.498    
    11.00   14.810    
    12.00   14.106    
    13.00   13.394    
    14.00   12.681    
    15.00   11.974    
    16.00   11.278    
    17.00   10.598    
    18.00   9.9375    
    19.00   9.3003    
    20.00   8.6886    
    21.00   8.1042    
    22.00   7.5482    
    23.00   7.0213    
    24.00   6.5238    
    25.00   6.0555    
    26.00   5.6160    
    27.00   5.2046    
    28.00   4.8205    
    29.00   4.4625    
    30.00   4.1296    
    31.00   3.8206    
    32.00   3.5341    
    33.00   3.2688    
    34.00   3.0236    
    35.00   2.7971    
    36.00   2.5881    
    37.00   2.3954    
    38.00   2.2178    
    39.00   2.0543    
    40.00   1.9037    
    41.00   1.7652    
    42.00   1.6376    
    43.00   1.5203    
    44.00   1.4124    
    45.00   1.3132    
    46.00   1.2218    
    47.00   1.1378    
    48.00   1.0604    
    49.00  0.98913    
    50.00  0.92349    
    51.00  0.86301    
    52.00  0.80725    
    53.00  0.75582    
    54.00  0.70836    
    55.00  0.66453    
    56.00  0.62403    
    57.00  0.58658    
    58.00  0.55193    
    59.00  0.51985    
    60.00  0.49014    
    61.00  0.46258    
    62.00  0.43702    
    63.00  0.41328    
    64.00  0.39122    
    65.00  0.37071    
    66.00  0.35162    
    67.00  0.33385    
    68.00  0.31729    
    69.00  0.30184    
    70.00  0.28742    
    71.00  0.27396    
    72.00  0.26137    
    73.00  0.24961    
    74.00  0.23859    
    75.00  0.22828    
    76.00  0.21862    
    77.00  0.20956    
    78.00  0.20107    
    79.00  0.19310    
    80.00  0.18561    
    81.00  0.17858    
    82.00  0.17197    
    83.00  0.16575    
    84.00  0.15991    
    85.00  0.15441    
    86.00  0.14924    
    87.00  0.14437    
    88.00  0.13978    
    89.00  0.13547    
    90.00  0.13141    
    91.00  0.12758    
    92.00  0.12398    
    93.00  0.12059    
    94.00  0.11740    
    95.00  0.11440    
    96.00  0.11158    
    97.00  0.10893    
    98.00  0.10644    
    99.00  0.10411    
   100.00  0.10192    
   101.00  0.99869E-01
   102.00  0.97955E-01
   103.00  0.96169E-01
   104.00  0.94506E-01
   105.00  0.92961E-01
   106.00  0.91530E-01
   107.00  0.90209E-01
   108.00  0.88993E-01
   109.00  0.87881E-01
   110.00  0.86868E-01
   111.00  0.85952E-01
   112.00  0.85130E-01
   113.00  0.84401E-01
   114.00  0.83762E-01
   115.00  0.83211E-01
   116.00  0.82748E-01
   117.00  0.82370E-01
   118.00  0.82076E-01
   119.00  0.81867E-01
   120.00  0.81740E-01
   121.00  0.81695E-01
   122.00  0.81732E-01
   123.00  0.81850E-01
   124.00  0.82049E-01
   125.00  0.82329E-01
   126.00  0.82689E-01
   127.00  0.83129E-01
   128.00  0.83649E-01
   129.00  0.84250E-01
   130.00  0.84929E-01
   131.00  0.85688E-01
   132.00  0.86525E-01
   133.00  0.87439E-01
   134.00  0.88430E-01
   135.00  0.89496E-01
   136.00  0.90635E-01
   137.00  0.91844E-01
   138.00  0.93121E-01
   139.00  0.94462E-01
   140.00  0.95862E-01
   141.00  0.97316E-01
   142.00  0.98818E-01
   143.00  0.10036    
   144.00  0.10193    
   145.00  0.10353    
   146.00  0.10514    
   147.00  0.10674    
   148.00  0.10833    
   149.00  0.10989    
   150.00  0.11140    
   151.00  0.11285    
   152.00  0.11422    
   153.00  0.11549    
   154.00  0.11664    
   155.00  0.11766    
   156.00  0.11853    
   157.00  0.11925    
   158.00  0.11981    
   159.00  0.12022    
   160.00  0.12047    
   161.00  0.12060    
   162.00  0.12064    
   163.00  0.12061    
   164.00  0.12058    
   165.00  0.12061    
   166.00  0.12075    
   167.00  0.12109    
   168.00  0.12169    
   169.00  0.12260    
   170.00  0.12386    
   171.00  0.12549    
   172.00  0.12745    
   173.00  0.12969    
   174.00  0.13210    
   175.00  0.13455    
   176.00  0.13689    
   177.00  0.13893    
   178.00  0.14053    
   179.00  0.14155    
   180.00  0.14190    
 |--------|------------|
0.440000     micron = Wavelength
 2.52064     = Extinction efficiency (Q)
 2.52064     = Scattering efficiency (Qs)
 0.00000     = Absorption efficiency (Qa)
 88.5592     = Lidar ratio
0.126655     micron^2 = <b> = Average surface area per particle
0.319253     microns^2 = Extinction cross section (C)
0.319253     microns^2 = Scattering cross section (Cs)
0.859757E-16 microns^2 = Absorption cross section (Ca)
 |----------------------------------------------------|
 | COMMENTAIRES:                                      |
 |----------------------------------------------------|
 |   -Cross section / <b> should = efficiency         |
 |    is independant of the normalisation of dN/dx    |
 |   -The integral of the phase fct / 4 pi over all   |
 |    directions (solid angle) = 1.                   |
 |   -The volume coefficient (k) is equal to C * N    |
 |      = cross section * Number density              |
 |      typical units: [um^2]*[particles/cm^3] =      |
 |      [10^-3 km-1]                                  |
 |      N = M/(d*4/3*pi*r^3) where d is the density   |
 |      of particle, M is the mass per unit volume    |
 |      and 4/3*pi*r^3 is the average volume  of a    |
 |      particle.                                     |
 |      typical units:  M -> [ug/m^3], d -> [g/cm^3]  |
 |                      r -> [um]                     |
 |      Lidar ratio= 4 pi Qe / phase_fct(180)*Qs      |
 |----------------------------------------------------|
