 |--------|------------|
 | ANGLE  |  PHASE FCT |
 |--------|------------|
     0.00   38.065    
     1.00   37.831    
     2.00   37.140    
     3.00   36.034    
     4.00   34.576    
     5.00   32.839    
     6.00   30.902    
     7.00   28.840    
     8.00   26.722    
     9.00   24.604    
    10.00   22.534    
    11.00   20.544    
    12.00   18.662    
    13.00   16.900    
    14.00   15.270    
    15.00   13.773    
    16.00   12.408    
    17.00   11.169    
    18.00   10.051    
    19.00   9.0459    
    20.00   8.1442    
    21.00   7.3371    
    22.00   6.6160    
    23.00   5.9723    
    24.00   5.3981    
    25.00   4.8860    
    26.00   4.4292    
    27.00   4.0215    
    28.00   3.6574    
    29.00   3.3318    
    30.00   3.0404    
    31.00   2.7792    
    32.00   2.5447    
    33.00   2.3339    
    34.00   2.1441    
    35.00   1.9729    
    36.00   1.8182    
    37.00   1.6781    
    38.00   1.5512    
    39.00   1.4358    
    40.00   1.3309    
    41.00   1.2352    
    42.00   1.1479    
    43.00   1.0681    
    44.00  0.99505    
    45.00  0.92804    
    46.00  0.86651    
    47.00  0.80994    
    48.00  0.75786    
    49.00  0.70985    
    50.00  0.66555    
    51.00  0.62463    
    52.00  0.58678    
    53.00  0.55175    
    54.00  0.51928    
    55.00  0.48917    
    56.00  0.46122    
    57.00  0.43526    
    58.00  0.41111    
    59.00  0.38865    
    60.00  0.36773    
    61.00  0.34824    
    62.00  0.33007    
    63.00  0.31311    
    64.00  0.29729    
    65.00  0.28250    
    66.00  0.26869    
    67.00  0.25577    
    68.00  0.24368    
    69.00  0.23237    
    70.00  0.22177    
    71.00  0.21185    
    72.00  0.20255    
    73.00  0.19383    
    74.00  0.18566    
    75.00  0.17799    
    76.00  0.17079    
    77.00  0.16403    
    78.00  0.15769    
    79.00  0.15173    
    80.00  0.14614    
    81.00  0.14088    
    82.00  0.13595    
    83.00  0.13131    
    84.00  0.12695    
    85.00  0.12286    
    86.00  0.11902    
    87.00  0.11541    
    88.00  0.11202    
    89.00  0.10884    
    90.00  0.10586    
    91.00  0.10306    
    92.00  0.10044    
    93.00  0.97987E-01
    94.00  0.95693E-01
    95.00  0.93550E-01
    96.00  0.91552E-01
    97.00  0.89690E-01
    98.00  0.87960E-01
    99.00  0.86356E-01
   100.00  0.84872E-01
   101.00  0.83505E-01
   102.00  0.82249E-01
   103.00  0.81101E-01
   104.00  0.80057E-01
   105.00  0.79116E-01
   106.00  0.78273E-01
   107.00  0.77526E-01
   108.00  0.76874E-01
   109.00  0.76314E-01
   110.00  0.75845E-01
   111.00  0.75466E-01
   112.00  0.75175E-01
   113.00  0.74973E-01
   114.00  0.74857E-01
   115.00  0.74830E-01
   116.00  0.74889E-01
   117.00  0.75036E-01
   118.00  0.75270E-01
   119.00  0.75593E-01
   120.00  0.76004E-01
   121.00  0.76505E-01
   122.00  0.77096E-01
   123.00  0.77779E-01
   124.00  0.78554E-01
   125.00  0.79423E-01
   126.00  0.80387E-01
   127.00  0.81447E-01
   128.00  0.82604E-01
   129.00  0.83860E-01
   130.00  0.85215E-01
   131.00  0.86671E-01
   132.00  0.88228E-01
   133.00  0.89886E-01
   134.00  0.91648E-01
   135.00  0.93513E-01
   136.00  0.95480E-01
   137.00  0.97551E-01
   138.00  0.99724E-01
   139.00  0.10200    
   140.00  0.10438    
   141.00  0.10685    
   142.00  0.10943    
   143.00  0.11211    
   144.00  0.11488    
   145.00  0.11775    
   146.00  0.12071    
   147.00  0.12376    
   148.00  0.12690    
   149.00  0.13011    
   150.00  0.13340    
   151.00  0.13675    
   152.00  0.14014    
   153.00  0.14354    
   154.00  0.14693    
   155.00  0.15025    
   156.00  0.15343    
   157.00  0.15640    
   158.00  0.15905    
   159.00  0.16123    
   160.00  0.16280    
   161.00  0.16356    
   162.00  0.16333    
   163.00  0.16190    
   164.00  0.15912    
   165.00  0.15486    
   166.00  0.14913    
   167.00  0.14204    
   168.00  0.13392    
   169.00  0.12527    
   170.00  0.11682    
   171.00  0.10939    
   172.00  0.10385    
   173.00  0.10094    
   174.00  0.10106    
   175.00  0.10413    
   176.00  0.10954    
   177.00  0.11611    
   178.00  0.12238    
   179.00  0.12687    
   180.00  0.12851    
 |--------|------------|
0.680000     micron = Wavelength
 3.11925     = Extinction efficiency (Q)
 3.11925     = Scattering efficiency (Qs)
 0.00000     = Absorption efficiency (Qa)
 97.7885     = Lidar ratio
0.917851     micron^2 = <b> = Average surface area per particle
 2.86300     microns^2 = Extinction cross section (C)
 2.86300     microns^2 = Scattering cross section (Cs)
-.821387E-15 microns^2 = Absorption cross section (Ca)
 |----------------------------------------------------|
 | COMMENTAIRES:                                      |
 |----------------------------------------------------|
 |   -Cross section / <b> should = efficiency         |
 |    is independant of the normalisation of dN/dx    |
 |   -The integral of the phase fct / 4 pi over all   |
 |    directions (solid angle) = 1.                   |
 |   -The volume coefficient (k) is equal to C * N    |
 |      = cross section * Number density              |
 |      typical units: [um^2]*[particles/cm^3] =      |
 |      [10^-3 km-1]                                  |
 |      N = M/(d*4/3*pi*r^3) where d is the density   |
 |      of particle, M is the mass per unit volume    |
 |      and 4/3*pi*r^3 is the average volume  of a    |
 |      particle.                                     |
 |      typical units:  M -> [ug/m^3], d -> [g/cm^3]  |
 |                      r -> [um]                     |
 |      Lidar ratio= 4 pi Qe / phase_fct(180)*Qs      |
 |----------------------------------------------------|
