 |--------|------------|
 | ANGLE  |  PHASE FCT |
 |--------|------------|
     0.00   16.939    
     1.00   16.905    
     2.00   16.802    
     3.00   16.633    
     4.00   16.401    
     5.00   16.110    
     6.00   15.764    
     7.00   15.369    
     8.00   14.930    
     9.00   14.455    
    10.00   13.949    
    11.00   13.419    
    12.00   12.870    
    13.00   12.309    
    14.00   11.742    
    15.00   11.172    
    16.00   10.605    
    17.00   10.044    
    18.00   9.4939    
    19.00   8.9563    
    20.00   8.4341    
    21.00   7.9294    
    22.00   7.4436    
    23.00   6.9779    
    24.00   6.5332    
    25.00   6.1098    
    26.00   5.7080    
    27.00   5.3277    
    28.00   4.9688    
    29.00   4.6308    
    30.00   4.3132    
    31.00   4.0153    
    32.00   3.7364    
    33.00   3.4758    
    34.00   3.2325    
    35.00   3.0057    
    36.00   2.7946    
    37.00   2.5982    
    38.00   2.4158    
    39.00   2.2464    
    40.00   2.0893    
    41.00   1.9437    
    42.00   1.8087    
    43.00   1.6837    
    44.00   1.5680    
    45.00   1.4609    
    46.00   1.3618    
    47.00   1.2701    
    48.00   1.1853    
    49.00   1.1068    
    50.00   1.0342    
    51.00  0.96699    
    52.00  0.90483    
    53.00  0.84729    
    54.00  0.79403    
    55.00  0.74470    
    56.00  0.69901    
    57.00  0.65668    
    58.00  0.61743    
    59.00  0.58103    
    60.00  0.54726    
    61.00  0.51591    
    62.00  0.48680    
    63.00  0.45975    
    64.00  0.43461    
    65.00  0.41122    
    66.00  0.38945    
    67.00  0.36918    
    68.00  0.35030    
    69.00  0.33269    
    70.00  0.31626    
    71.00  0.30093    
    72.00  0.28661    
    73.00  0.27324    
    74.00  0.26073    
    75.00  0.24903    
    76.00  0.23807    
    77.00  0.22782    
    78.00  0.21821    
    79.00  0.20920    
    80.00  0.20074    
    81.00  0.19281    
    82.00  0.18537    
    83.00  0.17838    
    84.00  0.17181    
    85.00  0.16564    
    86.00  0.15983    
    87.00  0.15438    
    88.00  0.14924    
    89.00  0.14441    
    90.00  0.13987    
    91.00  0.13559    
    92.00  0.13157    
    93.00  0.12778    
    94.00  0.12422    
    95.00  0.12087    
    96.00  0.11772    
    97.00  0.11476    
    98.00  0.11197    
    99.00  0.10936    
   100.00  0.10691    
   101.00  0.10461    
   102.00  0.10246    
   103.00  0.10044    
   104.00  0.98564E-01
   105.00  0.96810E-01
   106.00  0.95179E-01
   107.00  0.93665E-01
   108.00  0.92263E-01
   109.00  0.90970E-01
   110.00  0.89781E-01
   111.00  0.88693E-01
   112.00  0.87703E-01
   113.00  0.86807E-01
   114.00  0.86004E-01
   115.00  0.85290E-01
   116.00  0.84664E-01
   117.00  0.84124E-01
   118.00  0.83666E-01
   119.00  0.83291E-01
   120.00  0.82996E-01
   121.00  0.82780E-01
   122.00  0.82642E-01
   123.00  0.82580E-01
   124.00  0.82593E-01
   125.00  0.82681E-01
   126.00  0.82842E-01
   127.00  0.83075E-01
   128.00  0.83379E-01
   129.00  0.83754E-01
   130.00  0.84198E-01
   131.00  0.84709E-01
   132.00  0.85287E-01
   133.00  0.85930E-01
   134.00  0.86636E-01
   135.00  0.87404E-01
   136.00  0.88230E-01
   137.00  0.89113E-01
   138.00  0.90050E-01
   139.00  0.91037E-01
   140.00  0.92071E-01
   141.00  0.93147E-01
   142.00  0.94261E-01
   143.00  0.95407E-01
   144.00  0.96580E-01
   145.00  0.97774E-01
   146.00  0.98981E-01
   147.00  0.10019    
   148.00  0.10141    
   149.00  0.10261    
   150.00  0.10380    
   151.00  0.10496    
   152.00  0.10609    
   153.00  0.10718    
   154.00  0.10823    
   155.00  0.10923    
   156.00  0.11018    
   157.00  0.11108    
   158.00  0.11194    
   159.00  0.11276    
   160.00  0.11356    
   161.00  0.11434    
   162.00  0.11514    
   163.00  0.11598    
   164.00  0.11688    
   165.00  0.11788    
   166.00  0.11899    
   167.00  0.12026    
   168.00  0.12169    
   169.00  0.12330    
   170.00  0.12508    
   171.00  0.12702    
   172.00  0.12908    
   173.00  0.13121    
   174.00  0.13332    
   175.00  0.13534    
   176.00  0.13718    
   177.00  0.13873    
   178.00  0.13990    
   179.00  0.14064    
   180.00  0.14089    
 |--------|------------|
0.500000     micron = Wavelength
 2.18696     = Extinction efficiency (Q)
 2.18696     = Scattering efficiency (Qs)
 0.00000     = Absorption efficiency (Qa)
 89.1913     = Lidar ratio
0.126656     micron^2 = <b> = Average surface area per particle
0.276991     microns^2 = Extinction cross section (C)
0.276991     microns^2 = Scattering cross section (Cs)
 0.00000     microns^2 = Absorption cross section (Ca)
 |----------------------------------------------------|
 | COMMENTAIRES:                                      |
 |----------------------------------------------------|
 |   -Cross section / <b> should = efficiency         |
 |    is independant of the normalisation of dN/dx    |
 |   -The integral of the phase fct / 4 pi over all   |
 |    directions (solid angle) = 1.                   |
 |   -The volume coefficient (k) is equal to C * N    |
 |      = cross section * Number density              |
 |      typical units: [um^2]*[particles/cm^3] =      |
 |      [10^-3 km-1]                                  |
 |      N = M/(d*4/3*pi*r^3) where d is the density   |
 |      of particle, M is the mass per unit volume    |
 |      and 4/3*pi*r^3 is the average volume  of a    |
 |      particle.                                     |
 |      typical units:  M -> [ug/m^3], d -> [g/cm^3]  |
 |                      r -> [um]                     |
 |      Lidar ratio= 4 pi Qe / phase_fct(180)*Qs      |
 |----------------------------------------------------|
