 |--------|------------|
 | ANGLE  |  PHASE FCT |
 |--------|------------|
     0.00   67.600    
     1.00   64.205    
     2.00   55.304    
     3.00   43.896    
     4.00   32.908    
     5.00   23.975    
     6.00   17.406    
     7.00   12.834    
     8.00   9.7507    
     9.00   7.7170    
    10.00   6.3855    
    11.00   5.5054    
    12.00   4.9127    
    13.00   4.5030    
    14.00   4.2086    
    15.00   3.9866    
    16.00   3.8111    
    17.00   3.6660    
    18.00   3.5411    
    19.00   3.4306    
    20.00   3.3302    
    21.00   3.2368    
    22.00   3.1486    
    23.00   3.0649    
    24.00   2.9850    
    25.00   2.9079    
    26.00   2.8332    
    27.00   2.7605    
    28.00   2.6900    
    29.00   2.6214    
    30.00   2.5542    
    31.00   2.4884    
    32.00   2.4241    
    33.00   2.3612    
    34.00   2.2995    
    35.00   2.2390    
    36.00   2.1796    
    37.00   2.1215    
    38.00   2.0644    
    39.00   2.0084    
    40.00   1.9535    
    41.00   1.8997    
    42.00   1.8470    
    43.00   1.7952    
    44.00   1.7446    
    45.00   1.6951    
    46.00   1.6466    
    47.00   1.5991    
    48.00   1.5526    
    49.00   1.5073    
    50.00   1.4630    
    51.00   1.4196    
    52.00   1.3774    
    53.00   1.3362    
    54.00   1.2960    
    55.00   1.2568    
    56.00   1.2187    
    57.00   1.1816    
    58.00   1.1455    
    59.00   1.1104    
    60.00   1.0763    
    61.00   1.0432    
    62.00   1.0110    
    63.00  0.97984    
    64.00  0.94961    
    65.00  0.92034    
    66.00  0.89198    
    67.00  0.86454    
    68.00  0.83801    
    69.00  0.81238    
    70.00  0.78762    
    71.00  0.76372    
    72.00  0.74067    
    73.00  0.71846    
    74.00  0.69706    
    75.00  0.67646    
    76.00  0.65665    
    77.00  0.63760    
    78.00  0.61931    
    79.00  0.60174    
    80.00  0.58489    
    81.00  0.56874    
    82.00  0.55327    
    83.00  0.53845    
    84.00  0.52428    
    85.00  0.51074    
    86.00  0.49781    
    87.00  0.48546    
    88.00  0.47368    
    89.00  0.46245    
    90.00  0.45176    
    91.00  0.44160    
    92.00  0.43193    
    93.00  0.42275    
    94.00  0.41404    
    95.00  0.40578    
    96.00  0.39797    
    97.00  0.39058    
    98.00  0.38360    
    99.00  0.37701    
   100.00  0.37081    
   101.00  0.36499    
   102.00  0.35951    
   103.00  0.35439    
   104.00  0.34960    
   105.00  0.34514    
   106.00  0.34098    
   107.00  0.33713    
   108.00  0.33356    
   109.00  0.33028    
   110.00  0.32727    
   111.00  0.32452    
   112.00  0.32202    
   113.00  0.31977    
   114.00  0.31775    
   115.00  0.31597    
   116.00  0.31440    
   117.00  0.31304    
   118.00  0.31189    
   119.00  0.31093    
   120.00  0.31018    
   121.00  0.30961    
   122.00  0.30922    
   123.00  0.30902    
   124.00  0.30898    
   125.00  0.30913    
   126.00  0.30944    
   127.00  0.30993    
   128.00  0.31058    
   129.00  0.31141    
   130.00  0.31242    
   131.00  0.31360    
   132.00  0.31496    
   133.00  0.31652    
   134.00  0.31828    
   135.00  0.32024    
   136.00  0.32243    
   137.00  0.32485    
   138.00  0.32752    
   139.00  0.33046    
   140.00  0.33368    
   141.00  0.33719    
   142.00  0.34101    
   143.00  0.34515    
   144.00  0.34962    
   145.00  0.35441    
   146.00  0.35951    
   147.00  0.36491    
   148.00  0.37057    
   149.00  0.37645    
   150.00  0.38248    
   151.00  0.38859    
   152.00  0.39468    
   153.00  0.40066    
   154.00  0.40643    
   155.00  0.41191    
   156.00  0.41705    
   157.00  0.42185    
   158.00  0.42634    
   159.00  0.43063    
   160.00  0.43492    
   161.00  0.43941    
   162.00  0.44429    
   163.00  0.44978    
   164.00  0.45590    
   165.00  0.46241    
   166.00  0.46890    
   167.00  0.47490    
   168.00  0.47989    
   169.00  0.48357    
   170.00  0.48589    
   171.00  0.48647    
   172.00  0.48436    
   173.00  0.47868    
   174.00  0.46959    
   175.00  0.45886    
   176.00  0.45071    
   177.00  0.45129    
   178.00  0.46331    
   179.00  0.47990    
   180.00  0.48775    
 |--------|------------|
0.360000     micron = Wavelength
0.299791     = Extinction efficiency (Q)
0.283387     = Scattering efficiency (Qs)
0.164039E-01 = Absorption efficiency (Qa)
 27.2552     = Lidar ratio
0.747820E-02 micron^2 = <b> = Average surface area per particle
0.224189E-02 microns^2 = Extinction cross section (C)
0.211922E-02 microns^2 = Scattering cross section (Cs)
0.122671E-03 microns^2 = Absorption cross section (Ca)
 |----------------------------------------------------|
 | COMMENTAIRES:                                      |
 |----------------------------------------------------|
 |   -Cross section / <b> should = efficiency         |
 |    is independant of the normalisation of dN/dx    |
 |   -The integral of the phase fct / 4 pi over all   |
 |    directions (solid angle) = 1.                   |
 |   -The volume coefficient (k) is equal to C * N    |
 |      = cross section * Number density              |
 |      typical units: [um^2]*[particles/cm^3] =      |
 |      [10^-3 km-1]                                  |
 |      N = M/(d*4/3*pi*r^3) where d is the density   |
 |      of particle, M is the mass per unit volume    |
 |      and 4/3*pi*r^3 is the average volume  of a    |
 |      particle.                                     |
 |      typical units:  M -> [ug/m^3], d -> [g/cm^3]  |
 |                      r -> [um]                     |
 |      Lidar ratio= 4 pi Qe / phase_fct(180)*Qs      |
 |----------------------------------------------------|
