 |--------|------------|
 | ANGLE  |  PHASE FCT |
 |--------|------------|
     0.00   26.184    
     1.00   26.054    
     2.00   25.671    
     3.00   25.053    
     4.00   24.228    
     5.00   23.233    
     6.00   22.105    
     7.00   20.884    
     8.00   19.606    
     9.00   18.305    
    10.00   17.008    
    11.00   15.739    
    12.00   14.516    
    13.00   13.350    
    14.00   12.251    
    15.00   11.225    
    16.00   10.273    
    17.00   9.3946    
    18.00   8.5893    
    19.00   7.8538    
    20.00   7.1842    
    21.00   6.5763    
    22.00   6.0256    
    23.00   5.5273    
    24.00   5.0770    
    25.00   4.6701    
    26.00   4.3026    
    27.00   3.9704    
    28.00   3.6701    
    29.00   3.3982    
    30.00   3.1519    
    31.00   2.9284    
    32.00   2.7253    
    33.00   2.5403    
    34.00   2.3717    
    35.00   2.2176    
    36.00   2.0765    
    37.00   1.9472    
    38.00   1.8283    
    39.00   1.7188    
    40.00   1.6179    
    41.00   1.5246    
    42.00   1.4383    
    43.00   1.3582    
    44.00   1.2839    
    45.00   1.2148    
    46.00   1.1504    
    47.00   1.0903    
    48.00   1.0343    
    49.00  0.98185    
    50.00  0.93279    
    51.00  0.88684    
    52.00  0.84373    
    53.00  0.80328    
    54.00  0.76527    
    55.00  0.72954    
    56.00  0.69592    
    57.00  0.66427    
    58.00  0.63445    
    59.00  0.60634    
    60.00  0.57983    
    61.00  0.55481    
    62.00  0.53119    
    63.00  0.50887    
    64.00  0.48779    
    65.00  0.46785    
    66.00  0.44901    
    67.00  0.43117    
    68.00  0.41430    
    69.00  0.39833    
    70.00  0.38320    
    71.00  0.36888    
    72.00  0.35531    
    73.00  0.34245    
    74.00  0.33027    
    75.00  0.31873    
    76.00  0.30778    
    77.00  0.29741    
    78.00  0.28757    
    79.00  0.27824    
    80.00  0.26940    
    81.00  0.26102    
    82.00  0.25308    
    83.00  0.24554    
    84.00  0.23841    
    85.00  0.23164    
    86.00  0.22524    
    87.00  0.21917    
    88.00  0.21343    
    89.00  0.20799    
    90.00  0.20285    
    91.00  0.19800    
    92.00  0.19341    
    93.00  0.18908    
    94.00  0.18500    
    95.00  0.18116    
    96.00  0.17754    
    97.00  0.17415    
    98.00  0.17096    
    99.00  0.16798    
   100.00  0.16520    
   101.00  0.16261    
   102.00  0.16020    
   103.00  0.15797    
   104.00  0.15591    
   105.00  0.15403    
   106.00  0.15230    
   107.00  0.15074    
   108.00  0.14934    
   109.00  0.14810    
   110.00  0.14701    
   111.00  0.14607    
   112.00  0.14528    
   113.00  0.14464    
   114.00  0.14415    
   115.00  0.14382    
   116.00  0.14363    
   117.00  0.14359    
   118.00  0.14371    
   119.00  0.14399    
   120.00  0.14442    
   121.00  0.14502    
   122.00  0.14578    
   123.00  0.14672    
   124.00  0.14784    
   125.00  0.14915    
   126.00  0.15065    
   127.00  0.15236    
   128.00  0.15428    
   129.00  0.15642    
   130.00  0.15880    
   131.00  0.16143    
   132.00  0.16433    
   133.00  0.16750    
   134.00  0.17097    
   135.00  0.17475    
   136.00  0.17886    
   137.00  0.18332    
   138.00  0.18814    
   139.00  0.19333    
   140.00  0.19892    
   141.00  0.20492    
   142.00  0.21132    
   143.00  0.21813    
   144.00  0.22536    
   145.00  0.23298    
   146.00  0.24096    
   147.00  0.24928    
   148.00  0.25786    
   149.00  0.26663    
   150.00  0.27550    
   151.00  0.28432    
   152.00  0.29296    
   153.00  0.30122    
   154.00  0.30890    
   155.00  0.31579    
   156.00  0.32163    
   157.00  0.32619    
   158.00  0.32924    
   159.00  0.33060    
   160.00  0.33015    
   161.00  0.32785    
   162.00  0.32378    
   163.00  0.31816    
   164.00  0.31138    
   165.00  0.30397    
   166.00  0.29662    
   167.00  0.29011    
   168.00  0.28528    
   169.00  0.28293    
   170.00  0.28375    
   171.00  0.28816    
   172.00  0.29629    
   173.00  0.30786    
   174.00  0.32217    
   175.00  0.33813    
   176.00  0.35434    
   177.00  0.36921    
   178.00  0.38120    
   179.00  0.38898    
   180.00  0.39168    
 |--------|------------|
0.740000     micron = Wavelength
0.112697     = Extinction efficiency (Q)
0.104261     = Scattering efficiency (Qs)
0.843614E-02 = Absorption efficiency (Qa)
 34.6794     = Lidar ratio
0.313422E-02 micron^2 = <b> = Average surface area per particle
0.353217E-03 microns^2 = Extinction cross section (C)
0.326776E-03 microns^2 = Scattering cross section (Cs)
0.264407E-04 microns^2 = Absorption cross section (Ca)
 |----------------------------------------------------|
 | COMMENTAIRES:                                      |
 |----------------------------------------------------|
 |   -Cross section / <b> should = efficiency         |
 |    is independant of the normalisation of dN/dx    |
 |   -The integral of the phase fct / 4 pi over all   |
 |    directions (solid angle) = 1.                   |
 |   -The volume coefficient (k) is equal to C * N    |
 |      = cross section * Number density              |
 |      typical units: [um^2]*[particles/cm^3] =      |
 |      [10^-3 km-1]                                  |
 |      N = M/(d*4/3*pi*r^3) where d is the density   |
 |      of particle, M is the mass per unit volume    |
 |      and 4/3*pi*r^3 is the average volume  of a    |
 |      particle.                                     |
 |      typical units:  M -> [ug/m^3], d -> [g/cm^3]  |
 |                      r -> [um]                     |
 |      Lidar ratio= 4 pi Qe / phase_fct(180)*Qs      |
 |----------------------------------------------------|
