 |--------|------------|
 | ANGLE  |  PHASE FCT |
 |--------|------------|
     0.00   35.623    
     1.00   35.285    
     2.00   34.301    
     3.00   32.756    
     4.00   30.769    
     5.00   28.478    
     6.00   26.017    
     7.00   23.507    
     8.00   21.045    
     9.00   18.701    
    10.00   16.525    
    11.00   14.543    
    12.00   12.768    
    13.00   11.199    
    14.00   9.8263    
    15.00   8.6365    
    16.00   7.6119    
    17.00   6.7343    
    18.00   5.9857    
    19.00   5.3486    
    20.00   4.8071    
    21.00   4.3471    
    22.00   3.9557    
    23.00   3.6222    
    24.00   3.3371    
    25.00   3.0923    
    26.00   2.8811    
    27.00   2.6976    
    28.00   2.5371    
    29.00   2.3957    
    30.00   2.2700    
    31.00   2.1575    
    32.00   2.0558    
    33.00   1.9632    
    34.00   1.8782    
    35.00   1.7997    
    36.00   1.7266    
    37.00   1.6583    
    38.00   1.5940    
    39.00   1.5333    
    40.00   1.4758    
    41.00   1.4211    
    42.00   1.3690    
    43.00   1.3193    
    44.00   1.2717    
    45.00   1.2262    
    46.00   1.1825    
    47.00   1.1407    
    48.00   1.1005    
    49.00   1.0619    
    50.00   1.0249    
    51.00  0.98928    
    52.00  0.95509    
    53.00  0.92225    
    54.00  0.89069    
    55.00  0.86038    
    56.00  0.83127    
    57.00  0.80330    
    58.00  0.77645    
    59.00  0.75065    
    60.00  0.72589    
    61.00  0.70211    
    62.00  0.67929    
    63.00  0.65739    
    64.00  0.63637    
    65.00  0.61620    
    66.00  0.59685    
    67.00  0.57830    
    68.00  0.56050    
    69.00  0.54344    
    70.00  0.52709    
    71.00  0.51141    
    72.00  0.49639    
    73.00  0.48201    
    74.00  0.46824    
    75.00  0.45505    
    76.00  0.44243    
    77.00  0.43035    
    78.00  0.41880    
    79.00  0.40776    
    80.00  0.39721    
    81.00  0.38714    
    82.00  0.37752    
    83.00  0.36834    
    84.00  0.35959    
    85.00  0.35125    
    86.00  0.34331    
    87.00  0.33575    
    88.00  0.32857    
    89.00  0.32175    
    90.00  0.31527    
    91.00  0.30914    
    92.00  0.30333    
    93.00  0.29784    
    94.00  0.29265    
    95.00  0.28776    
    96.00  0.28316    
    97.00  0.27884    
    98.00  0.27480    
    99.00  0.27101    
   100.00  0.26749    
   101.00  0.26421    
   102.00  0.26117    
   103.00  0.25837    
   104.00  0.25581    
   105.00  0.25346    
   106.00  0.25134    
   107.00  0.24942    
   108.00  0.24772    
   109.00  0.24622    
   110.00  0.24493    
   111.00  0.24383    
   112.00  0.24292    
   113.00  0.24221    
   114.00  0.24168    
   115.00  0.24135    
   116.00  0.24120    
   117.00  0.24123    
   118.00  0.24146    
   119.00  0.24187    
   120.00  0.24247    
   121.00  0.24327    
   122.00  0.24426    
   123.00  0.24546    
   124.00  0.24686    
   125.00  0.24848    
   126.00  0.25033    
   127.00  0.25241    
   128.00  0.25475    
   129.00  0.25735    
   130.00  0.26025    
   131.00  0.26346    
   132.00  0.26700    
   133.00  0.27091    
   134.00  0.27523    
   135.00  0.27998    
   136.00  0.28523    
   137.00  0.29101    
   138.00  0.29738    
   139.00  0.30441    
   140.00  0.31214    
   141.00  0.32066    
   142.00  0.33002    
   143.00  0.34029    
   144.00  0.35153    
   145.00  0.36379    
   146.00  0.37708    
   147.00  0.39143    
   148.00  0.40679    
   149.00  0.42309    
   150.00  0.44021    
   151.00  0.45797    
   152.00  0.47611    
   153.00  0.49430    
   154.00  0.51215    
   155.00  0.52919    
   156.00  0.54494    
   157.00  0.55887    
   158.00  0.57053    
   159.00  0.57955    
   160.00  0.58572    
   161.00  0.58909    
   162.00  0.59003    
   163.00  0.58924    
   164.00  0.58780    
   165.00  0.58716    
   166.00  0.58900    
   167.00  0.59514    
   168.00  0.60740    
   169.00  0.62740    
   170.00  0.65636    
   171.00  0.69493    
   172.00  0.74294    
   173.00  0.79922    
   174.00  0.86156    
   175.00  0.92661    
   176.00  0.99003    
   177.00   1.0469    
   178.00   1.0921    
   179.00   1.1212    
   180.00   1.1313    
 |--------|------------|
0.550000     micron = Wavelength
0.112724     = Extinction efficiency (Q)
0.990190E-01 = Scattering efficiency (Qs)
0.137050E-01 = Absorption efficiency (Qa)
 12.6451     = Lidar ratio
0.302566E-02 micron^2 = <b> = Average surface area per particle
0.341064E-03 microns^2 = Extinction cross section (C)
0.299598E-03 microns^2 = Scattering cross section (Cs)
0.414667E-04 microns^2 = Absorption cross section (Ca)
 |----------------------------------------------------|
 | COMMENTAIRES:                                      |
 |----------------------------------------------------|
 |   -Cross section / <b> should = efficiency         |
 |    is independant of the normalisation of dN/dx    |
 |   -The integral of the phase fct / 4 pi over all   |
 |    directions (solid angle) = 1.                   |
 |   -The volume coefficient (k) is equal to C * N    |
 |      = cross section * Number density              |
 |      typical units: [um^2]*[particles/cm^3] =      |
 |      [10^-3 km-1]                                  |
 |      N = M/(d*4/3*pi*r^3) where d is the density   |
 |      of particle, M is the mass per unit volume    |
 |      and 4/3*pi*r^3 is the average volume  of a    |
 |      particle.                                     |
 |      typical units:  M -> [ug/m^3], d -> [g/cm^3]  |
 |                      r -> [um]                     |
 |      Lidar ratio= 4 pi Qe / phase_fct(180)*Qs      |
 |----------------------------------------------------|
