 |--------|------------|
 | ANGLE  |  PHASE FCT |
 |--------|------------|
     0.00   164.62    
     1.00   151.93    
     2.00   120.14    
     3.00   83.089    
     4.00   52.421    
     5.00   32.133    
     6.00   20.300    
     7.00   13.592    
     8.00   9.7548    
     9.00   7.5843    
    10.00   6.3403    
    11.00   5.5650    
    12.00   5.0416    
    13.00   4.6706    
    14.00   4.3877    
    15.00   4.1589    
    16.00   3.9698    
    17.00   3.8055    
    18.00   3.6547    
    19.00   3.5173    
    20.00   3.3951    
    21.00   3.2830    
    22.00   3.1750    
    23.00   3.0715    
    24.00   2.9746    
    25.00   2.8836    
    26.00   2.7958    
    27.00   2.7097    
    28.00   2.6264    
    29.00   2.5472    
    30.00   2.4710    
    31.00   2.3960    
    32.00   2.3225    
    33.00   2.2520    
    34.00   2.1843    
    35.00   2.1178    
    36.00   2.0524    
    37.00   1.9894    
    38.00   1.9289    
    39.00   1.8695    
    40.00   1.8112    
    41.00   1.7549    
    42.00   1.7006    
    43.00   1.6475    
    44.00   1.5954    
    45.00   1.5451    
    46.00   1.4966    
    47.00   1.4491    
    48.00   1.4027    
    49.00   1.3579    
    50.00   1.3146    
    51.00   1.2723    
    52.00   1.2311    
    53.00   1.1913    
    54.00   1.1528    
    55.00   1.1153    
    56.00   1.0789    
    57.00   1.0437    
    58.00   1.0097    
    59.00  0.97673    
    60.00  0.94468    
    61.00  0.91379    
    62.00  0.88398    
    63.00  0.85507    
    64.00  0.82710    
    65.00  0.80015    
    66.00  0.77418    
    67.00  0.74906    
    68.00  0.72480    
    69.00  0.70148    
    70.00  0.67904    
    71.00  0.65739    
    72.00  0.63653    
    73.00  0.61653    
    74.00  0.59733    
    75.00  0.57884    
    76.00  0.56107    
    77.00  0.54410    
    78.00  0.52783    
    79.00  0.51221    
    80.00  0.49727    
    81.00  0.48302    
    82.00  0.46940    
    83.00  0.45638    
    84.00  0.44397    
    85.00  0.43215    
    86.00  0.42089    
    87.00  0.41018    
    88.00  0.39999    
    89.00  0.39031    
    90.00  0.38112    
    91.00  0.37241    
    92.00  0.36414    
    93.00  0.35629    
    94.00  0.34887    
    95.00  0.34185    
    96.00  0.33519    
    97.00  0.32890    
    98.00  0.32298    
    99.00  0.31738    
   100.00  0.31209    
   101.00  0.30712    
   102.00  0.30245    
   103.00  0.29805    
   104.00  0.29392    
   105.00  0.29007    
   106.00  0.28647    
   107.00  0.28310    
   108.00  0.27998    
   109.00  0.27710    
   110.00  0.27442    
   111.00  0.27196    
   112.00  0.26972    
   113.00  0.26767    
   114.00  0.26582    
   115.00  0.26416    
   116.00  0.26269    
   117.00  0.26140    
   118.00  0.26029    
   119.00  0.25935    
   120.00  0.25857    
   121.00  0.25796    
   122.00  0.25752    
   123.00  0.25724    
   124.00  0.25713    
   125.00  0.25717    
   126.00  0.25739    
   127.00  0.25778    
   128.00  0.25834    
   129.00  0.25909    
   130.00  0.26003    
   131.00  0.26119    
   132.00  0.26256    
   133.00  0.26419    
   134.00  0.26608    
   135.00  0.26826    
   136.00  0.27077    
   137.00  0.27363    
   138.00  0.27688    
   139.00  0.28057    
   140.00  0.28473    
   141.00  0.28938    
   142.00  0.29455    
   143.00  0.30027    
   144.00  0.30651    
   145.00  0.31328    
   146.00  0.32054    
   147.00  0.32816    
   148.00  0.33601    
   149.00  0.34397    
   150.00  0.35188    
   151.00  0.35942    
   152.00  0.36637    
   153.00  0.37254    
   154.00  0.37765    
   155.00  0.38146    
   156.00  0.38399    
   157.00  0.38537    
   158.00  0.38561    
   159.00  0.38507    
   160.00  0.38439    
   161.00  0.38396    
   162.00  0.38418    
   163.00  0.38602    
   164.00  0.39019    
   165.00  0.39650    
   166.00  0.40494    
   167.00  0.41563    
   168.00  0.42757    
   169.00  0.44004    
   170.00  0.45465    
   171.00  0.47249    
   172.00  0.49059    
   173.00  0.50466    
   174.00  0.51047    
   175.00  0.50082    
   176.00  0.47325    
   177.00  0.44573    
   178.00  0.44582    
   179.00  0.47237    
   180.00  0.48901    
 |--------|------------|
0.440000     micron = Wavelength
0.340902     = Extinction efficiency (Q)
0.318473     = Scattering efficiency (Qs)
0.224293E-01 = Absorption efficiency (Qa)
 27.5075     = Lidar ratio
0.116442E-01 micron^2 = <b> = Average surface area per particle
0.396954E-02 microns^2 = Extinction cross section (C)
0.370837E-02 microns^2 = Scattering cross section (Cs)
0.261172E-03 microns^2 = Absorption cross section (Ca)
 |----------------------------------------------------|
 | COMMENTAIRES:                                      |
 |----------------------------------------------------|
 |   -Cross section / <b> should = efficiency         |
 |    is independant of the normalisation of dN/dx    |
 |   -The integral of the phase fct / 4 pi over all   |
 |    directions (solid angle) = 1.                   |
 |   -The volume coefficient (k) is equal to C * N    |
 |      = cross section * Number density              |
 |      typical units: [um^2]*[particles/cm^3] =      |
 |      [10^-3 km-1]                                  |
 |      N = M/(d*4/3*pi*r^3) where d is the density   |
 |      of particle, M is the mass per unit volume    |
 |      and 4/3*pi*r^3 is the average volume  of a    |
 |      particle.                                     |
 |      typical units:  M -> [ug/m^3], d -> [g/cm^3]  |
 |                      r -> [um]                     |
 |      Lidar ratio= 4 pi Qe / phase_fct(180)*Qs      |
 |----------------------------------------------------|
