 |--------|------------|
 | ANGLE  |  PHASE FCT |
 |--------|------------|
     0.00   34.198    
     1.00   33.919    
     2.00   33.103    
     3.00   31.813    
     4.00   30.140    
     5.00   28.190    
     6.00   26.068    
     7.00   23.872    
     8.00   21.684    
     9.00   19.567    
    10.00   17.566    
    11.00   15.711    
    12.00   14.017    
    13.00   12.490    
    14.00   11.126    
    15.00   9.9197    
    16.00   8.8581    
    17.00   7.9288    
    18.00   7.1181    
    19.00   6.4125    
    20.00   5.7991    
    21.00   5.2658    
    22.00   4.8018    
    23.00   4.3972    
    24.00   4.0435    
    25.00   3.7332    
    26.00   3.4599    
    27.00   3.2180    
    28.00   3.0028    
    29.00   2.8103    
    30.00   2.6373    
    31.00   2.4808    
    32.00   2.3386    
    33.00   2.2087    
    34.00   2.0894    
    35.00   1.9794    
    36.00   1.8776    
    37.00   1.7831    
    38.00   1.6949    
    39.00   1.6125    
    40.00   1.5353    
    41.00   1.4628    
    42.00   1.3945    
    43.00   1.3302    
    44.00   1.2696    
    45.00   1.2122    
    46.00   1.1580    
    47.00   1.1067    
    48.00   1.0582    
    49.00   1.0121    
    50.00  0.96850    
    51.00  0.92712    
    52.00  0.88786    
    53.00  0.85060    
    54.00  0.81523    
    55.00  0.78166    
    56.00  0.74977    
    57.00  0.71949    
    58.00  0.69072    
    59.00  0.66338    
    60.00  0.63741    
    61.00  0.61273    
    62.00  0.58928    
    63.00  0.56699    
    64.00  0.54579    
    65.00  0.52565    
    66.00  0.50650    
    67.00  0.48829    
    68.00  0.47097    
    69.00  0.45451    
    70.00  0.43886    
    71.00  0.42397    
    72.00  0.40981    
    73.00  0.39635    
    74.00  0.38355    
    75.00  0.37138    
    76.00  0.35981    
    77.00  0.34881    
    78.00  0.33836    
    79.00  0.32842    
    80.00  0.31898    
    81.00  0.31001    
    82.00  0.30149    
    83.00  0.29341    
    84.00  0.28574    
    85.00  0.27846    
    86.00  0.27156    
    87.00  0.26502    
    88.00  0.25883    
    89.00  0.25297    
    90.00  0.24743    
    91.00  0.24220    
    92.00  0.23726    
    93.00  0.23260    
    94.00  0.22822    
    95.00  0.22411    
    96.00  0.22024    
    97.00  0.21663    
    98.00  0.21324    
    99.00  0.21009    
   100.00  0.20716    
   101.00  0.20445    
   102.00  0.20194    
   103.00  0.19964    
   104.00  0.19754    
   105.00  0.19563    
   106.00  0.19391    
   107.00  0.19237    
   108.00  0.19102    
   109.00  0.18984    
   110.00  0.18884    
   111.00  0.18801    
   112.00  0.18735    
   113.00  0.18686    
   114.00  0.18654    
   115.00  0.18639    
   116.00  0.18640    
   117.00  0.18659    
   118.00  0.18695    
   119.00  0.18748    
   120.00  0.18818    
   121.00  0.18907    
   122.00  0.19014    
   123.00  0.19140    
   124.00  0.19286    
   125.00  0.19451    
   126.00  0.19639    
   127.00  0.19848    
   128.00  0.20081    
   129.00  0.20338    
   130.00  0.20622    
   131.00  0.20934    
   132.00  0.21276    
   133.00  0.21650    
   134.00  0.22058    
   135.00  0.22504    
   136.00  0.22990    
   137.00  0.23520    
   138.00  0.24097    
   139.00  0.24726    
   140.00  0.25410    
   141.00  0.26154    
   142.00  0.26963    
   143.00  0.27841    
   144.00  0.28793    
   145.00  0.29822    
   146.00  0.30933    
   147.00  0.32128    
   148.00  0.33407    
   149.00  0.34767    
   150.00  0.36204    
   151.00  0.37708    
   152.00  0.39264    
   153.00  0.40852    
   154.00  0.42443    
   155.00  0.44001    
   156.00  0.45481    
   157.00  0.46835    
   158.00  0.48004    
   159.00  0.48929    
   160.00  0.49551    
   161.00  0.49820    
   162.00  0.49701    
   163.00  0.49179    
   164.00  0.48273    
   165.00  0.47038    
   166.00  0.45568    
   167.00  0.43999    
   168.00  0.42496    
   169.00  0.41246    
   170.00  0.40430    
   171.00  0.40208    
   172.00  0.40690    
   173.00  0.41908    
   174.00  0.43804    
   175.00  0.46218    
   176.00  0.48893    
   177.00  0.51504    
   178.00  0.53702    
   179.00  0.55169    
   180.00  0.55685    
 |--------|------------|
0.590000     micron = Wavelength
0.111179     = Extinction efficiency (Q)
0.102028     = Scattering efficiency (Qs)
0.915063E-02 = Absorption efficiency (Qa)
 24.5907     = Lidar ratio
0.313421E-02 micron^2 = <b> = Average surface area per particle
0.348458E-03 microns^2 = Extinction cross section (C)
0.319778E-03 microns^2 = Scattering cross section (Cs)
0.286800E-04 microns^2 = Absorption cross section (Ca)
 |----------------------------------------------------|
 | COMMENTAIRES:                                      |
 |----------------------------------------------------|
 |   -Cross section / <b> should = efficiency         |
 |    is independant of the normalisation of dN/dx    |
 |   -The integral of the phase fct / 4 pi over all   |
 |    directions (solid angle) = 1.                   |
 |   -The volume coefficient (k) is equal to C * N    |
 |      = cross section * Number density              |
 |      typical units: [um^2]*[particles/cm^3] =      |
 |      [10^-3 km-1]                                  |
 |      N = M/(d*4/3*pi*r^3) where d is the density   |
 |      of particle, M is the mass per unit volume    |
 |      and 4/3*pi*r^3 is the average volume  of a    |
 |      particle.                                     |
 |      typical units:  M -> [ug/m^3], d -> [g/cm^3]  |
 |                      r -> [um]                     |
 |      Lidar ratio= 4 pi Qe / phase_fct(180)*Qs      |
 |----------------------------------------------------|
