 |--------|------------|
 | ANGLE  |  PHASE FCT |
 |--------|------------|
     0.00   43.117    
     1.00   42.643    
     2.00   41.271    
     3.00   39.135    
     4.00   36.430    
     5.00   33.364    
     6.00   30.135    
     7.00   26.910    
     8.00   23.812    
     9.00   20.929    
    10.00   18.307    
    11.00   15.970    
    12.00   13.918    
    13.00   12.138    
    14.00   10.609    
    15.00   9.3035    
    16.00   8.1955    
    17.00   7.2581    
    18.00   6.4662    
    19.00   5.7972    
    20.00   5.2312    
    21.00   4.7510    
    22.00   4.3417    
    23.00   3.9908    
    24.00   3.6881    
    25.00   3.4250    
    26.00   3.1943    
    27.00   2.9904    
    28.00   2.8086    
    29.00   2.6452    
    30.00   2.4972    
    31.00   2.3621    
    32.00   2.2380    
    33.00   2.1233    
    34.00   2.0168    
    35.00   1.9174    
    36.00   1.8244    
    37.00   1.7371    
    38.00   1.6549    
    39.00   1.5774    
    40.00   1.5041    
    41.00   1.4348    
    42.00   1.3693    
    43.00   1.3071    
    44.00   1.2482    
    45.00   1.1923    
    46.00   1.1393    
    47.00   1.0890    
    48.00   1.0413    
    49.00  0.99595    
    50.00  0.95293    
    51.00  0.91208    
    52.00  0.87330    
    53.00  0.83648    
    54.00  0.80153    
    55.00  0.76834    
    56.00  0.73683    
    57.00  0.70691    
    58.00  0.67851    
    59.00  0.65153    
    60.00  0.62592    
    61.00  0.60159    
    62.00  0.57849    
    63.00  0.55654    
    64.00  0.53570    
    65.00  0.51591    
    66.00  0.49711    
    67.00  0.47925    
    68.00  0.46228    
    69.00  0.44616    
    70.00  0.43085    
    71.00  0.41631    
    72.00  0.40249    
    73.00  0.38936    
    74.00  0.37689    
    75.00  0.36504    
    76.00  0.35379    
    77.00  0.34311    
    78.00  0.33296    
    79.00  0.32333    
    80.00  0.31418    
    81.00  0.30550    
    82.00  0.29727    
    83.00  0.28947    
    84.00  0.28206    
    85.00  0.27505    
    86.00  0.26841    
    87.00  0.26213    
    88.00  0.25618    
    89.00  0.25057    
    90.00  0.24526    
    91.00  0.24026    
    92.00  0.23554    
    93.00  0.23111    
    94.00  0.22694    
    95.00  0.22303    
    96.00  0.21937    
    97.00  0.21595    
    98.00  0.21276    
    99.00  0.20980    
   100.00  0.20706    
   101.00  0.20453    
   102.00  0.20220    
   103.00  0.20008    
   104.00  0.19815    
   105.00  0.19641    
   106.00  0.19485    
   107.00  0.19348    
   108.00  0.19229    
   109.00  0.19128    
   110.00  0.19044    
   111.00  0.18977    
   112.00  0.18927    
   113.00  0.18894    
   114.00  0.18878    
   115.00  0.18878    
   116.00  0.18896    
   117.00  0.18930    
   118.00  0.18982    
   119.00  0.19050    
   120.00  0.19137    
   121.00  0.19241    
   122.00  0.19364    
   123.00  0.19506    
   124.00  0.19667    
   125.00  0.19848    
   126.00  0.20050    
   127.00  0.20274    
   128.00  0.20521    
   129.00  0.20792    
   130.00  0.21088    
   131.00  0.21411    
   132.00  0.21762    
   133.00  0.22143    
   134.00  0.22557    
   135.00  0.23004    
   136.00  0.23489    
   137.00  0.24013    
   138.00  0.24580    
   139.00  0.25194    
   140.00  0.25856    
   141.00  0.26573    
   142.00  0.27348    
   143.00  0.28186    
   144.00  0.29092    
   145.00  0.30072    
   146.00  0.31132    
   147.00  0.32275    
   148.00  0.33509    
   149.00  0.34836    
   150.00  0.36260    
   151.00  0.37780    
   152.00  0.39393    
   153.00  0.41091    
   154.00  0.42857    
   155.00  0.44668    
   156.00  0.46489    
   157.00  0.48271    
   158.00  0.49956    
   159.00  0.51468    
   160.00  0.52723    
   161.00  0.53627    
   162.00  0.54089    
   163.00  0.54026    
   164.00  0.53380    
   165.00  0.52129    
   166.00  0.50307    
   167.00  0.48012    
   168.00  0.45408    
   169.00  0.42722    
   170.00  0.40225    
   171.00  0.38202    
   172.00  0.36913    
   173.00  0.36544    
   174.00  0.37169    
   175.00  0.38707    
   176.00  0.40914    
   177.00  0.43398    
   178.00  0.45678    
   179.00  0.47282    
   180.00  0.47859    
 |--------|------------|
0.640000     micron = Wavelength
0.118909     = Extinction efficiency (Q)
0.109547     = Scattering efficiency (Qs)
0.936122E-02 = Absorption efficiency (Qa)
 28.5008     = Lidar ratio
0.446406E-02 micron^2 = <b> = Average surface area per particle
0.530815E-03 microns^2 = Extinction cross section (C)
0.489026E-03 microns^2 = Scattering cross section (Cs)
0.417890E-04 microns^2 = Absorption cross section (Ca)
 |----------------------------------------------------|
 | COMMENTAIRES:                                      |
 |----------------------------------------------------|
 |   -Cross section / <b> should = efficiency         |
 |    is independant of the normalisation of dN/dx    |
 |   -The integral of the phase fct / 4 pi over all   |
 |    directions (solid angle) = 1.                   |
 |   -The volume coefficient (k) is equal to C * N    |
 |      = cross section * Number density              |
 |      typical units: [um^2]*[particles/cm^3] =      |
 |      [10^-3 km-1]                                  |
 |      N = M/(d*4/3*pi*r^3) where d is the density   |
 |      of particle, M is the mass per unit volume    |
 |      and 4/3*pi*r^3 is the average volume  of a    |
 |      particle.                                     |
 |      typical units:  M -> [ug/m^3], d -> [g/cm^3]  |
 |                      r -> [um]                     |
 |      Lidar ratio= 4 pi Qe / phase_fct(180)*Qs      |
 |----------------------------------------------------|
