 |--------|------------|
 | ANGLE  |  PHASE FCT |
 |--------|------------|
     0.00   24.211    
     1.00   24.091    
     2.00   23.736    
     3.00   23.162    
     4.00   22.397    
     5.00   21.473    
     6.00   20.425    
     7.00   19.291    
     8.00   18.104    
     9.00   16.894    
    10.00   15.690    
    11.00   14.512    
    12.00   13.377    
    13.00   12.297    
    14.00   11.281    
    15.00   10.333    
    16.00   9.4548    
    17.00   8.6473    
    18.00   7.9086    
    19.00   7.2357    
    20.00   6.6248    
    21.00   6.0718    
    22.00   5.5724    
    23.00   5.1220    
    24.00   4.7162    
    25.00   4.3507    
    26.00   4.0216    
    27.00   3.7250    
    28.00   3.4576    
    29.00   3.2162    
    30.00   2.9978    
    31.00   2.8001    
    32.00   2.6206    
    33.00   2.4573    
    34.00   2.3083    
    35.00   2.1722    
    36.00   2.0474    
    37.00   1.9327    
    38.00   1.8271    
    39.00   1.7295    
    40.00   1.6391    
    41.00   1.5553    
    42.00   1.4773    
    43.00   1.4047    
    44.00   1.3368    
    45.00   1.2733    
    46.00   1.2137    
    47.00   1.1578    
    48.00   1.1053    
    49.00   1.0558    
    50.00   1.0092    
    51.00  0.96515    
    52.00  0.92357    
    53.00  0.88424    
    54.00  0.84703    
    55.00  0.81179    
    56.00  0.77838    
    57.00  0.74671    
    58.00  0.71665    
    59.00  0.68811    
    60.00  0.66101    
    61.00  0.63526    
    62.00  0.61078    
    63.00  0.58751    
    64.00  0.56537    
    65.00  0.54431    
    66.00  0.52427    
    67.00  0.50519    
    68.00  0.48704    
    69.00  0.46975    
    70.00  0.45328    
    71.00  0.43760    
    72.00  0.42267    
    73.00  0.40845    
    74.00  0.39490    
    75.00  0.38199    
    76.00  0.36970    
    77.00  0.35798    
    78.00  0.34683    
    79.00  0.33620    
    80.00  0.32608    
    81.00  0.31645    
    82.00  0.30727    
    83.00  0.29854    
    84.00  0.29023    
    85.00  0.28232    
    86.00  0.27480    
    87.00  0.26765    
    88.00  0.26085    
    89.00  0.25440    
    90.00  0.24827    
    91.00  0.24245    
    92.00  0.23694    
    93.00  0.23171    
    94.00  0.22677    
    95.00  0.22209    
    96.00  0.21768    
    97.00  0.21351    
    98.00  0.20958    
    99.00  0.20589    
   100.00  0.20243    
   101.00  0.19919    
   102.00  0.19615    
   103.00  0.19333    
   104.00  0.19071    
   105.00  0.18829    
   106.00  0.18606    
   107.00  0.18402    
   108.00  0.18217    
   109.00  0.18050    
   110.00  0.17901    
   111.00  0.17771    
   112.00  0.17658    
   113.00  0.17563    
   114.00  0.17486    
   115.00  0.17428    
   116.00  0.17387    
   117.00  0.17365    
   118.00  0.17362    
   119.00  0.17377    
   120.00  0.17413    
   121.00  0.17469    
   122.00  0.17546    
   123.00  0.17644    
   124.00  0.17766    
   125.00  0.17911    
   126.00  0.18082    
   127.00  0.18278    
   128.00  0.18503    
   129.00  0.18757    
   130.00  0.19042    
   131.00  0.19360    
   132.00  0.19712    
   133.00  0.20102    
   134.00  0.20530    
   135.00  0.20999    
   136.00  0.21511    
   137.00  0.22067    
   138.00  0.22669    
   139.00  0.23319    
   140.00  0.24016    
   141.00  0.24761    
   142.00  0.25552    
   143.00  0.26388    
   144.00  0.27265    
   145.00  0.28177    
   146.00  0.29118    
   147.00  0.30079    
   148.00  0.31047    
   149.00  0.32010    
   150.00  0.32952    
   151.00  0.33854    
   152.00  0.34698    
   153.00  0.35463    
   154.00  0.36130    
   155.00  0.36681    
   156.00  0.37103    
   157.00  0.37388    
   158.00  0.37534    
   159.00  0.37555    
   160.00  0.37472    
   161.00  0.37323    
   162.00  0.37159    
   163.00  0.37047    
   164.00  0.37065    
   165.00  0.37298    
   166.00  0.37831    
   167.00  0.38748    
   168.00  0.40115    
   169.00  0.41976    
   170.00  0.44344    
   171.00  0.47194    
   172.00  0.50455    
   173.00  0.54014    
   174.00  0.57716    
   175.00  0.61370    
   176.00  0.64767    
   177.00  0.67691    
   178.00  0.69944    
   179.00  0.71366    
   180.00  0.71853    
 |--------|------------|
0.740000     micron = Wavelength
0.113195     = Extinction efficiency (Q)
0.100807     = Scattering efficiency (Qs)
0.123875E-01 = Absorption efficiency (Qa)
 19.6382     = Lidar ratio
0.302566E-02 micron^2 = <b> = Average surface area per particle
0.342489E-03 microns^2 = Extinction cross section (C)
0.305008E-03 microns^2 = Scattering cross section (Cs)
0.374805E-04 microns^2 = Absorption cross section (Ca)
 |----------------------------------------------------|
 | COMMENTAIRES:                                      |
 |----------------------------------------------------|
 |   -Cross section / <b> should = efficiency         |
 |    is independant of the normalisation of dN/dx    |
 |   -The integral of the phase fct / 4 pi over all   |
 |    directions (solid angle) = 1.                   |
 |   -The volume coefficient (k) is equal to C * N    |
 |      = cross section * Number density              |
 |      typical units: [um^2]*[particles/cm^3] =      |
 |      [10^-3 km-1]                                  |
 |      N = M/(d*4/3*pi*r^3) where d is the density   |
 |      of particle, M is the mass per unit volume    |
 |      and 4/3*pi*r^3 is the average volume  of a    |
 |      particle.                                     |
 |      typical units:  M -> [ug/m^3], d -> [g/cm^3]  |
 |                      r -> [um]                     |
 |      Lidar ratio= 4 pi Qe / phase_fct(180)*Qs      |
 |----------------------------------------------------|
