 |--------|------------|
 | ANGLE  |  PHASE FCT |
 |--------|------------|
     0.00   40.604    
     1.00   40.117    
     2.00   38.709    
     3.00   36.528    
     4.00   33.780    
     5.00   30.687    
     6.00   27.456    
     7.00   24.257    
     8.00   21.216    
     9.00   18.414    
    10.00   15.897    
    11.00   13.680    
    12.00   11.759    
    13.00   10.116    
    14.00   8.7249    
    15.00   7.5569    
    16.00   6.5822    
    17.00   5.7721    
    18.00   5.1008    
    19.00   4.5450    
    20.00   4.0848    
    21.00   3.7031    
    22.00   3.3855    
    23.00   3.1199    
    24.00   2.8966    
    25.00   2.7074    
    26.00   2.5458    
    27.00   2.4063    
    28.00   2.2845    
    29.00   2.1772    
    30.00   2.0814    
    31.00   1.9949    
    32.00   1.9161    
    33.00   1.8435    
    34.00   1.7760    
    35.00   1.7129    
    36.00   1.6533    
    37.00   1.5969    
    38.00   1.5432    
    39.00   1.4919    
    40.00   1.4427    
    41.00   1.3955    
    42.00   1.3501    
    43.00   1.3064    
    44.00   1.2643    
    45.00   1.2236    
    46.00   1.1844    
    47.00   1.1465    
    48.00   1.1100    
    49.00   1.0747    
    50.00   1.0406    
    51.00   1.0077    
    52.00  0.97597    
    53.00  0.94533    
    54.00  0.91576    
    55.00  0.88724    
    56.00  0.85973    
    57.00  0.83320    
    58.00  0.80762    
    59.00  0.78296    
    60.00  0.75920    
    61.00  0.73630    
    62.00  0.71425    
    63.00  0.69301    
    64.00  0.67256    
    65.00  0.65288    
    66.00  0.63394    
    67.00  0.61571    
    68.00  0.59818    
    69.00  0.58133    
    70.00  0.56513    
    71.00  0.54957    
    72.00  0.53462    
    73.00  0.52026    
    74.00  0.50648    
    75.00  0.49326    
    76.00  0.48058    
    77.00  0.46843    
    78.00  0.45679    
    79.00  0.44564    
    80.00  0.43498    
    81.00  0.42478    
    82.00  0.41503    
    83.00  0.40572    
    84.00  0.39684    
    85.00  0.38837    
    86.00  0.38030    
    87.00  0.37263    
    88.00  0.36534    
    89.00  0.35841    
    90.00  0.35184    
    91.00  0.34563    
    92.00  0.33975    
    93.00  0.33420    
    94.00  0.32897    
    95.00  0.32405    
    96.00  0.31944    
    97.00  0.31512    
    98.00  0.31109    
    99.00  0.30733    
   100.00  0.30385    
   101.00  0.30064    
   102.00  0.29767    
   103.00  0.29497    
   104.00  0.29250    
   105.00  0.29027    
   106.00  0.28828    
   107.00  0.28651    
   108.00  0.28496    
   109.00  0.28363    
   110.00  0.28251    
   111.00  0.28160    
   112.00  0.28089    
   113.00  0.28037    
   114.00  0.28006    
   115.00  0.27993    
   116.00  0.28000    
   117.00  0.28025    
   118.00  0.28069    
   119.00  0.28132    
   120.00  0.28213    
   121.00  0.28313    
   122.00  0.28431    
   123.00  0.28569    
   124.00  0.28726    
   125.00  0.28903    
   126.00  0.29100    
   127.00  0.29319    
   128.00  0.29559    
   129.00  0.29824    
   130.00  0.30113    
   131.00  0.30429    
   132.00  0.30773    
   133.00  0.31150    
   134.00  0.31560    
   135.00  0.32009    
   136.00  0.32499    
   137.00  0.33037    
   138.00  0.33626    
   139.00  0.34275    
   140.00  0.34989    
   141.00  0.35776    
   142.00  0.36646    
   143.00  0.37605    
   144.00  0.38665    
   145.00  0.39833    
   146.00  0.41117    
   147.00  0.42525    
   148.00  0.44059    
   149.00  0.45721    
   150.00  0.47506    
   151.00  0.49403    
   152.00  0.51395    
   153.00  0.53454    
   154.00  0.55544    
   155.00  0.57618    
   156.00  0.59622    
   157.00  0.61494    
   158.00  0.63169    
   159.00  0.64590    
   160.00  0.65711    
   161.00  0.66509    
   162.00  0.66993    
   163.00  0.67213    
   164.00  0.67260    
   165.00  0.67270    
   166.00  0.67411    
   167.00  0.67877    
   168.00  0.68869    
   169.00  0.70579    
   170.00  0.73171    
   171.00  0.76761    
   172.00  0.81395    
   173.00  0.87017    
   174.00  0.93449    
   175.00   1.0037    
   176.00   1.0731    
   177.00   1.1369    
   178.00   1.1887    
   179.00   1.2226    
   180.00   1.2344    
 |--------|------------|
0.490000     micron = Wavelength
0.117647     = Extinction efficiency (Q)
0.103795     = Scattering efficiency (Qs)
0.138525E-01 = Absorption efficiency (Qa)
 11.5389     = Lidar ratio
0.302566E-02 micron^2 = <b> = Average surface area per particle
0.355960E-03 microns^2 = Extinction cross section (C)
0.314047E-03 microns^2 = Scattering cross section (Cs)
0.419128E-04 microns^2 = Absorption cross section (Ca)
 |----------------------------------------------------|
 | COMMENTAIRES:                                      |
 |----------------------------------------------------|
 |   -Cross section / <b> should = efficiency         |
 |    is independant of the normalisation of dN/dx    |
 |   -The integral of the phase fct / 4 pi over all   |
 |    directions (solid angle) = 1.                   |
 |   -The volume coefficient (k) is equal to C * N    |
 |      = cross section * Number density              |
 |      typical units: [um^2]*[particles/cm^3] =      |
 |      [10^-3 km-1]                                  |
 |      N = M/(d*4/3*pi*r^3) where d is the density   |
 |      of particle, M is the mass per unit volume    |
 |      and 4/3*pi*r^3 is the average volume  of a    |
 |      particle.                                     |
 |      typical units:  M -> [ug/m^3], d -> [g/cm^3]  |
 |                      r -> [um]                     |
 |      Lidar ratio= 4 pi Qe / phase_fct(180)*Qs      |
 |----------------------------------------------------|
