 |--------|------------|
 | ANGLE  |  PHASE FCT |
 |--------|------------|
     0.00   128.81    
     1.00   120.95    
     2.00   100.73    
     3.00   75.754    
     4.00   53.028    
     5.00   35.870    
     6.00   24.236    
     7.00   16.723    
     8.00   11.980    
     9.00   9.0417    
    10.00   7.2236    
    11.00   6.0688    
    12.00   5.3084    
    13.00   4.7887    
    14.00   4.4146    
    15.00   4.1299    
    16.00   3.9033    
    17.00   3.7142    
    18.00   3.5496    
    19.00   3.4039    
    20.00   3.2737    
    21.00   3.1545    
    22.00   3.0429    
    23.00   2.9380    
    24.00   2.8399    
    25.00   2.7476    
    26.00   2.6593    
    27.00   2.5746    
    28.00   2.4936    
    29.00   2.4163    
    30.00   2.3420    
    31.00   2.2700    
    32.00   2.2004    
    33.00   2.1335    
    34.00   2.0690    
    35.00   2.0063    
    36.00   1.9453    
    37.00   1.8865    
    38.00   1.8297    
    39.00   1.7743    
    40.00   1.7203    
    41.00   1.6682    
    42.00   1.6177    
    43.00   1.5685    
    44.00   1.5206    
    45.00   1.4742    
    46.00   1.4292    
    47.00   1.3854    
    48.00   1.3428    
    49.00   1.3015    
    50.00   1.2614    
    51.00   1.2225    
    52.00   1.1846    
    53.00   1.1479    
    54.00   1.1124    
    55.00   1.0778    
    56.00   1.0443    
    57.00   1.0118    
    58.00  0.98041    
    59.00  0.94992    
    60.00  0.92037    
    61.00  0.89181    
    62.00  0.86419    
    63.00  0.83743    
    64.00  0.81155    
    65.00  0.78658    
    66.00  0.76246    
    67.00  0.73915    
    68.00  0.71666    
    69.00  0.69499    
    70.00  0.67411    
    71.00  0.65398    
    72.00  0.63460    
    73.00  0.61597    
    74.00  0.59807    
    75.00  0.58086    
    76.00  0.56432    
    77.00  0.54848    
    78.00  0.53330    
    79.00  0.51874    
    80.00  0.50480    
    81.00  0.49149    
    82.00  0.47877    
    83.00  0.46660    
    84.00  0.45500    
    85.00  0.44395    
    86.00  0.43342    
    87.00  0.42339    
    88.00  0.41385    
    89.00  0.40478    
    90.00  0.39617    
    91.00  0.38800    
    92.00  0.38025    
    93.00  0.37291    
    94.00  0.36596    
    95.00  0.35940    
    96.00  0.35319    
    97.00  0.34733    
    98.00  0.34181    
    99.00  0.33662    
   100.00  0.33173    
   101.00  0.32715    
   102.00  0.32286    
   103.00  0.31885    
   104.00  0.31511    
   105.00  0.31164    
   106.00  0.30842    
   107.00  0.30544    
   108.00  0.30269    
   109.00  0.30019    
   110.00  0.29790    
   111.00  0.29582    
   112.00  0.29396    
   113.00  0.29230    
   114.00  0.29084    
   115.00  0.28958    
   116.00  0.28850    
   117.00  0.28760    
   118.00  0.28689    
   119.00  0.28635    
   120.00  0.28598    
   121.00  0.28579    
   122.00  0.28577    
   123.00  0.28591    
   124.00  0.28623    
   125.00  0.28672    
   126.00  0.28739    
   127.00  0.28824    
   128.00  0.28927    
   129.00  0.29051    
   130.00  0.29194    
   131.00  0.29360    
   132.00  0.29550    
   133.00  0.29765    
   134.00  0.30007    
   135.00  0.30280    
   136.00  0.30584    
   137.00  0.30925    
   138.00  0.31303    
   139.00  0.31724    
   140.00  0.32188    
   141.00  0.32700    
   142.00  0.33261    
   143.00  0.33873    
   144.00  0.34535    
   145.00  0.35247    
   146.00  0.36004    
   147.00  0.36800    
   148.00  0.37624    
   149.00  0.38469    
   150.00  0.39317    
   151.00  0.40150    
   152.00  0.40947    
   153.00  0.41691    
   154.00  0.42359    
   155.00  0.42933    
   156.00  0.43409    
   157.00  0.43789    
   158.00  0.44081    
   159.00  0.44314    
   160.00  0.44533    
   161.00  0.44786    
   162.00  0.45124    
   163.00  0.45619    
   164.00  0.46317    
   165.00  0.47212    
   166.00  0.48269    
   167.00  0.49430    
   168.00  0.50591    
   169.00  0.51672    
   170.00  0.52686    
   171.00  0.53600    
   172.00  0.54192    
   173.00  0.54177    
   174.00  0.53371    
   175.00  0.51760    
   176.00  0.49888    
   177.00  0.49145    
   178.00  0.50678    
   179.00  0.53544    
   180.00  0.55011    
 |--------|------------|
0.440000     micron = Wavelength
0.277329     = Extinction efficiency (Q)
0.258835     = Scattering efficiency (Qs)
0.184936E-01 = Absorption efficiency (Qa)
 24.4753     = Lidar ratio
0.956675E-02 micron^2 = <b> = Average surface area per particle
0.265314E-02 microns^2 = Extinction cross section (C)
0.247622E-02 microns^2 = Scattering cross section (Cs)
0.176924E-03 microns^2 = Absorption cross section (Ca)
 |----------------------------------------------------|
 | COMMENTAIRES:                                      |
 |----------------------------------------------------|
 |   -Cross section / <b> should = efficiency         |
 |    is independant of the normalisation of dN/dx    |
 |   -The integral of the phase fct / 4 pi over all   |
 |    directions (solid angle) = 1.                   |
 |   -The volume coefficient (k) is equal to C * N    |
 |      = cross section * Number density              |
 |      typical units: [um^2]*[particles/cm^3] =      |
 |      [10^-3 km-1]                                  |
 |      N = M/(d*4/3*pi*r^3) where d is the density   |
 |      of particle, M is the mass per unit volume    |
 |      and 4/3*pi*r^3 is the average volume  of a    |
 |      particle.                                     |
 |      typical units:  M -> [ug/m^3], d -> [g/cm^3]  |
 |                      r -> [um]                     |
 |      Lidar ratio= 4 pi Qe / phase_fct(180)*Qs      |
 |----------------------------------------------------|
