 |--------|------------|
 | ANGLE  |  PHASE FCT |
 |--------|------------|
     0.00   70.882    
     1.00   68.549    
     2.00   62.185    
     3.00   53.355    
     4.00   43.809    
     5.00   34.862    
     6.00   27.203    
     7.00   21.026    
     8.00   16.245    
     9.00   12.655    
    10.00   10.011    
    11.00   8.0873    
    12.00   6.6959    
    13.00   5.6897    
    14.00   4.9580    
    15.00   4.4199    
    16.00   4.0178    
    17.00   3.7110    
    18.00   3.4708    
    19.00   3.2776    
    20.00   3.1175    
    21.00   2.9810    
    22.00   2.8615    
    23.00   2.7545    
    24.00   2.6570    
    25.00   2.5667    
    26.00   2.4823    
    27.00   2.4025    
    28.00   2.3267    
    29.00   2.2544    
    30.00   2.1851    
    31.00   2.1185    
    32.00   2.0544    
    33.00   1.9926    
    34.00   1.9329    
    35.00   1.8751    
    36.00   1.8192    
    37.00   1.7651    
    38.00   1.7127    
    39.00   1.6618    
    40.00   1.6125    
    41.00   1.5647    
    42.00   1.5184    
    43.00   1.4734    
    44.00   1.4297    
    45.00   1.3874    
    46.00   1.3463    
    47.00   1.3064    
    48.00   1.2677    
    49.00   1.2302    
    50.00   1.1938    
    51.00   1.1585    
    52.00   1.1243    
    53.00   1.0911    
    54.00   1.0590    
    55.00   1.0278    
    56.00  0.99763    
    57.00  0.96842    
    58.00  0.94013    
    59.00  0.91276    
    60.00  0.88627    
    61.00  0.86066    
    62.00  0.83590    
    63.00  0.81196    
    64.00  0.78885    
    65.00  0.76653    
    66.00  0.74499    
    67.00  0.72421    
    68.00  0.70416    
    69.00  0.68485    
    70.00  0.66625    
    71.00  0.64835    
    72.00  0.63112    
    73.00  0.61455    
    74.00  0.59863    
    75.00  0.58334    
    76.00  0.56867    
    77.00  0.55459    
    78.00  0.54111    
    79.00  0.52819    
    80.00  0.51583    
    81.00  0.50401    
    82.00  0.49271    
    83.00  0.48193    
    84.00  0.47164    
    85.00  0.46184    
    86.00  0.45251    
    87.00  0.44363    
    88.00  0.43520    
    89.00  0.42720    
    90.00  0.41962    
    91.00  0.41244    
    92.00  0.40565    
    93.00  0.39924    
    94.00  0.39321    
    95.00  0.38753    
    96.00  0.38220    
    97.00  0.37721    
    98.00  0.37254    
    99.00  0.36819    
   100.00  0.36415    
   101.00  0.36041    
   102.00  0.35696    
   103.00  0.35379    
   104.00  0.35089    
   105.00  0.34826    
   106.00  0.34589    
   107.00  0.34376    
   108.00  0.34188    
   109.00  0.34024    
   110.00  0.33882    
   111.00  0.33763    
   112.00  0.33666    
   113.00  0.33590    
   114.00  0.33535    
   115.00  0.33500    
   116.00  0.33485    
   117.00  0.33490    
   118.00  0.33514    
   119.00  0.33558    
   120.00  0.33620    
   121.00  0.33700    
   122.00  0.33800    
   123.00  0.33919    
   124.00  0.34056    
   125.00  0.34213    
   126.00  0.34389    
   127.00  0.34586    
   128.00  0.34803    
   129.00  0.35042    
   130.00  0.35303    
   131.00  0.35588    
   132.00  0.35898    
   133.00  0.36233    
   134.00  0.36597    
   135.00  0.36989    
   136.00  0.37412    
   137.00  0.37869    
   138.00  0.38359    
   139.00  0.38887    
   140.00  0.39453    
   141.00  0.40058    
   142.00  0.40704    
   143.00  0.41391    
   144.00  0.42120    
   145.00  0.42891    
   146.00  0.43700    
   147.00  0.44548    
   148.00  0.45429    
   149.00  0.46342    
   150.00  0.47281    
   151.00  0.48241    
   152.00  0.49220    
   153.00  0.50213    
   154.00  0.51219    
   155.00  0.52240    
   156.00  0.53282    
   157.00  0.54354    
   158.00  0.55466    
   159.00  0.56629    
   160.00  0.57850    
   161.00  0.59126    
   162.00  0.60432    
   163.00  0.61723    
   164.00  0.62918    
   165.00  0.63904    
   166.00  0.64546    
   167.00  0.64715    
   168.00  0.64312    
   169.00  0.63307    
   170.00  0.61757    
   171.00  0.59802    
   172.00  0.57662    
   173.00  0.55637    
   174.00  0.54116    
   175.00  0.53520    
   176.00  0.54194    
   177.00  0.56190    
   178.00  0.59006    
   179.00  0.61538    
   180.00  0.62563    
 |--------|------------|
0.470000     micron = Wavelength
0.180538     = Extinction efficiency (Q)
0.168128     = Scattering efficiency (Qs)
0.124103E-01 = Absorption efficiency (Qa)
 21.5687     = Lidar ratio
0.747893E-02 micron^2 = <b> = Average surface area per particle
0.135023E-02 microns^2 = Extinction cross section (C)
0.125742E-02 microns^2 = Scattering cross section (Cs)
0.928159E-04 microns^2 = Absorption cross section (Ca)
 |----------------------------------------------------|
 | COMMENTAIRES:                                      |
 |----------------------------------------------------|
 |   -Cross section / <b> should = efficiency         |
 |    is independant of the normalisation of dN/dx    |
 |   -The integral of the phase fct / 4 pi over all   |
 |    directions (solid angle) = 1.                   |
 |   -The volume coefficient (k) is equal to C * N    |
 |      = cross section * Number density              |
 |      typical units: [um^2]*[particles/cm^3] =      |
 |      [10^-3 km-1]                                  |
 |      N = M/(d*4/3*pi*r^3) where d is the density   |
 |      of particle, M is the mass per unit volume    |
 |      and 4/3*pi*r^3 is the average volume  of a    |
 |      particle.                                     |
 |      typical units:  M -> [ug/m^3], d -> [g/cm^3]  |
 |                      r -> [um]                     |
 |      Lidar ratio= 4 pi Qe / phase_fct(180)*Qs      |
 |----------------------------------------------------|
