 |--------|------------|
 | ANGLE  |  PHASE FCT |
 |--------|------------|
     0.00   155.52    
     1.00   147.80    
     2.00   127.48    
     3.00   101.19    
     4.00   75.519    
     5.00   54.283    
     6.00   38.374    
     7.00   27.102    
     8.00   19.384    
     9.00   14.225    
    10.00   10.814    
    11.00   8.5525    
    12.00   7.0342    
    13.00   5.9951    
    14.00   5.2623    
    15.00   4.7268    
    16.00   4.3213    
    17.00   4.0014    
    18.00   3.7384    
    19.00   3.5153    
    20.00   3.3221    
    21.00   3.1509    
    22.00   2.9960    
    23.00   2.8540    
    24.00   2.7231    
    25.00   2.6020    
    26.00   2.4891    
    27.00   2.3830    
    28.00   2.2830    
    29.00   2.1890    
    30.00   2.1005    
    31.00   2.0164    
    32.00   1.9365    
    33.00   1.8606    
    34.00   1.7887    
    35.00   1.7201    
    36.00   1.6545    
    37.00   1.5919    
    38.00   1.5323    
    39.00   1.4753    
    40.00   1.4205    
    41.00   1.3682    
    42.00   1.3181    
    43.00   1.2702    
    44.00   1.2241    
    45.00   1.1799    
    46.00   1.1376    
    47.00   1.0970    
    48.00   1.0579    
    49.00   1.0204    
    50.00  0.98450    
    51.00  0.94998    
    52.00  0.91677    
    53.00  0.88491    
    54.00  0.85435    
    55.00  0.82497    
    56.00  0.79671    
    57.00  0.76960    
    58.00  0.74360    
    59.00  0.71861    
    60.00  0.69458    
    61.00  0.67154    
    62.00  0.64944    
    63.00  0.62823    
    64.00  0.60784    
    65.00  0.58831    
    66.00  0.56960    
    67.00  0.55165    
    68.00  0.53443    
    69.00  0.51795    
    70.00  0.50218    
    71.00  0.48708    
    72.00  0.47262    
    73.00  0.45881    
    74.00  0.44561    
    75.00  0.43300    
    76.00  0.42097    
    77.00  0.40950    
    78.00  0.39856    
    79.00  0.38814    
    80.00  0.37822    
    81.00  0.36879    
    82.00  0.35983    
    83.00  0.35132    
    84.00  0.34324    
    85.00  0.33558    
    86.00  0.32833    
    87.00  0.32146    
    88.00  0.31496    
    89.00  0.30882    
    90.00  0.30301    
    91.00  0.29754    
    92.00  0.29237    
    93.00  0.28751    
    94.00  0.28293    
    95.00  0.27862    
    96.00  0.27458    
    97.00  0.27078    
    98.00  0.26723    
    99.00  0.26391    
   100.00  0.26080    
   101.00  0.25792    
   102.00  0.25523    
   103.00  0.25275    
   104.00  0.25045    
   105.00  0.24834    
   106.00  0.24642    
   107.00  0.24466    
   108.00  0.24308    
   109.00  0.24167    
   110.00  0.24042    
   111.00  0.23933    
   112.00  0.23840    
   113.00  0.23764    
   114.00  0.23702    
   115.00  0.23657    
   116.00  0.23627    
   117.00  0.23613    
   118.00  0.23615    
   119.00  0.23633    
   120.00  0.23667    
   121.00  0.23718    
   122.00  0.23788    
   123.00  0.23875    
   124.00  0.23981    
   125.00  0.24108    
   126.00  0.24256    
   127.00  0.24428    
   128.00  0.24624    
   129.00  0.24846    
   130.00  0.25098    
   131.00  0.25381    
   132.00  0.25698    
   133.00  0.26052    
   134.00  0.26447    
   135.00  0.26886    
   136.00  0.27373    
   137.00  0.27912    
   138.00  0.28507    
   139.00  0.29161    
   140.00  0.29878    
   141.00  0.30658    
   142.00  0.31505    
   143.00  0.32416    
   144.00  0.33391    
   145.00  0.34424    
   146.00  0.35509    
   147.00  0.36635    
   148.00  0.37788    
   149.00  0.38951    
   150.00  0.40107    
   151.00  0.41230    
   152.00  0.42299    
   153.00  0.43293    
   154.00  0.44194    
   155.00  0.44987    
   156.00  0.45676    
   157.00  0.46277    
   158.00  0.46817    
   159.00  0.47344    
   160.00  0.47926    
   161.00  0.48631    
   162.00  0.49526    
   163.00  0.50678    
   164.00  0.52108    
   165.00  0.53764    
   166.00  0.55528    
   167.00  0.57217    
   168.00  0.58596    
   169.00  0.59464    
   170.00  0.59732    
   171.00  0.59380    
   172.00  0.58380    
   173.00  0.56773    
   174.00  0.54798    
   175.00  0.52979    
   176.00  0.52249    
   177.00  0.53757    
   178.00  0.57730    
   179.00  0.62300    
   180.00  0.64350    
 |--------|------------|
0.616000     micron = Wavelength
0.218067     = Extinction efficiency (Q)
0.200740     = Scattering efficiency (Qs)
0.173263E-01 = Absorption efficiency (Qa)
 21.2138     = Lidar ratio
0.116600E-01 micron^2 = <b> = Average surface area per particle
0.254266E-02 microns^2 = Extinction cross section (C)
0.234063E-02 microns^2 = Scattering cross section (Cs)
0.202025E-03 microns^2 = Absorption cross section (Ca)
 |----------------------------------------------------|
 | COMMENTAIRES:                                      |
 |----------------------------------------------------|
 |   -Cross section / <b> should = efficiency         |
 |    is independant of the normalisation of dN/dx    |
 |   -The integral of the phase fct / 4 pi over all   |
 |    directions (solid angle) = 1.                   |
 |   -The volume coefficient (k) is equal to C * N    |
 |      = cross section * Number density              |
 |      typical units: [um^2]*[particles/cm^3] =      |
 |      [10^-3 km-1]                                  |
 |      N = M/(d*4/3*pi*r^3) where d is the density   |
 |      of particle, M is the mass per unit volume    |
 |      and 4/3*pi*r^3 is the average volume  of a    |
 |      particle.                                     |
 |      typical units:  M -> [ug/m^3], d -> [g/cm^3]  |
 |                      r -> [um]                     |
 |      Lidar ratio= 4 pi Qe / phase_fct(180)*Qs      |
 |----------------------------------------------------|
