 |--------|------------|
 | ANGLE  |  PHASE FCT |
 |--------|------------|
     0.00   64.921    
     1.00   63.268    
     2.00   58.668    
     3.00   52.045    
     4.00   44.505    
     5.00   36.988    
     6.00   30.114    
     7.00   24.189    
     8.00   19.296    
     9.00   15.380    
    10.00   12.318    
    11.00   9.9631    
    12.00   8.1717    
    13.00   6.8184    
    14.00   5.7985    
    15.00   5.0288    
    16.00   4.4451    
    17.00   3.9986    
    18.00   3.6528    
    19.00   3.3808    
    20.00   3.1626    
    21.00   2.9838    
    22.00   2.8339    
    23.00   2.7053    
    24.00   2.5924    
    25.00   2.4914    
    26.00   2.3995    
    27.00   2.3145    
    28.00   2.2352    
    29.00   2.1604    
    30.00   2.0894    
    31.00   2.0217    
    32.00   1.9570    
    33.00   1.8947    
    34.00   1.8349    
    35.00   1.7772    
    36.00   1.7215    
    37.00   1.6677    
    38.00   1.6158    
    39.00   1.5655    
    40.00   1.5170    
    41.00   1.4700    
    42.00   1.4246    
    43.00   1.3806    
    44.00   1.3381    
    45.00   1.2969    
    46.00   1.2571    
    47.00   1.2186    
    48.00   1.1814    
    49.00   1.1454    
    50.00   1.1105    
    51.00   1.0769    
    52.00   1.0443    
    53.00   1.0129    
    54.00  0.98246    
    55.00  0.95308    
    56.00  0.92472    
    57.00  0.89732    
    58.00  0.87087    
    59.00  0.84534    
    60.00  0.82071    
    61.00  0.79694    
    62.00  0.77402    
    63.00  0.75191    
    64.00  0.73061    
    65.00  0.71009    
    66.00  0.69031    
    67.00  0.67128    
    68.00  0.65296    
    69.00  0.63534    
    70.00  0.61839    
    71.00  0.60210    
    72.00  0.58644    
    73.00  0.57141    
    74.00  0.55698    
    75.00  0.54314    
    76.00  0.52986    
    77.00  0.51714    
    78.00  0.50496    
    79.00  0.49329    
    80.00  0.48215    
    81.00  0.47149    
    82.00  0.46131    
    83.00  0.45160    
    84.00  0.44234    
    85.00  0.43352    
    86.00  0.42512    
    87.00  0.41715    
    88.00  0.40957    
    89.00  0.40239    
    90.00  0.39559    
    91.00  0.38915    
    92.00  0.38308    
    93.00  0.37736    
    94.00  0.37198    
    95.00  0.36693    
    96.00  0.36221    
    97.00  0.35779    
    98.00  0.35368    
    99.00  0.34987    
   100.00  0.34635    
   101.00  0.34310    
   102.00  0.34014    
   103.00  0.33743    
   104.00  0.33499    
   105.00  0.33280    
   106.00  0.33085    
   107.00  0.32914    
   108.00  0.32766    
   109.00  0.32641    
   110.00  0.32539    
   111.00  0.32458    
   112.00  0.32397    
   113.00  0.32358    
   114.00  0.32339    
   115.00  0.32339    
   116.00  0.32359    
   117.00  0.32398    
   118.00  0.32457    
   119.00  0.32533    
   120.00  0.32629    
   121.00  0.32743    
   122.00  0.32875    
   123.00  0.33026    
   124.00  0.33196    
   125.00  0.33385    
   126.00  0.33593    
   127.00  0.33822    
   128.00  0.34071    
   129.00  0.34341    
   130.00  0.34634    
   131.00  0.34950    
   132.00  0.35291    
   133.00  0.35658    
   134.00  0.36053    
   135.00  0.36477    
   136.00  0.36932    
   137.00  0.37421    
   138.00  0.37945    
   139.00  0.38509    
   140.00  0.39112    
   141.00  0.39760    
   142.00  0.40454    
   143.00  0.41198    
   144.00  0.41995    
   145.00  0.42847    
   146.00  0.43759    
   147.00  0.44734    
   148.00  0.45776    
   149.00  0.46890    
   150.00  0.48083    
   151.00  0.49360    
   152.00  0.50728    
   153.00  0.52196    
   154.00  0.53768    
   155.00  0.55453    
   156.00  0.57250    
   157.00  0.59156    
   158.00  0.61157    
   159.00  0.63221    
   160.00  0.65301    
   161.00  0.67318    
   162.00  0.69171    
   163.00  0.70732    
   164.00  0.71859    
   165.00  0.72407    
   166.00  0.72262    
   167.00  0.71367    
   168.00  0.69736    
   169.00  0.67474    
   170.00  0.64767    
   171.00  0.61878    
   172.00  0.59129    
   173.00  0.56895    
   174.00  0.55568    
   175.00  0.55479    
   176.00  0.56760    
   177.00  0.59198    
   178.00  0.62131    
   179.00  0.64546    
   180.00  0.65484    
 |--------|------------|
0.420000     micron = Wavelength
0.155144     = Extinction efficiency (Q)
0.142169     = Scattering efficiency (Qs)
0.129751E-01 = Absorption efficiency (Qa)
 20.9414     = Lidar ratio
0.446407E-02 micron^2 = <b> = Average surface area per particle
0.692575E-03 microns^2 = Extinction cross section (C)
0.634653E-03 microns^2 = Scattering cross section (Cs)
0.579217E-04 microns^2 = Absorption cross section (Ca)
 |----------------------------------------------------|
 | COMMENTAIRES:                                      |
 |----------------------------------------------------|
 |   -Cross section / <b> should = efficiency         |
 |    is independant of the normalisation of dN/dx    |
 |   -The integral of the phase fct / 4 pi over all   |
 |    directions (solid angle) = 1.                   |
 |   -The volume coefficient (k) is equal to C * N    |
 |      = cross section * Number density              |
 |      typical units: [um^2]*[particles/cm^3] =      |
 |      [10^-3 km-1]                                  |
 |      N = M/(d*4/3*pi*r^3) where d is the density   |
 |      of particle, M is the mass per unit volume    |
 |      and 4/3*pi*r^3 is the average volume  of a    |
 |      particle.                                     |
 |      typical units:  M -> [ug/m^3], d -> [g/cm^3]  |
 |                      r -> [um]                     |
 |      Lidar ratio= 4 pi Qe / phase_fct(180)*Qs      |
 |----------------------------------------------------|
