 |--------|------------|
 | ANGLE  |  PHASE FCT |
 |--------|------------|
     0.00   168.06    
     1.00   157.16    
     2.00   129.28    
     3.00   95.293    
     4.00   65.000    
     5.00   42.761    
     6.00   28.144    
     7.00   18.964    
     8.00   13.302    
     9.00   9.8681    
    10.00   7.7839    
    11.00   6.4751    
    12.00   5.6167    
    13.00   5.0290    
    14.00   4.6024    
    15.00   4.2749    
    16.00   4.0139    
    17.00   3.7961    
    18.00   3.6054    
    19.00   3.4360    
    20.00   3.2857    
    21.00   3.1495    
    22.00   3.0227    
    23.00   2.9036    
    24.00   2.7928    
    25.00   2.6896    
    26.00   2.5920    
    27.00   2.4986    
    28.00   2.4095    
    29.00   2.3253    
    30.00   2.2454    
    31.00   2.1683    
    32.00   2.0939    
    33.00   2.0230    
    34.00   1.9554    
    35.00   1.8901    
    36.00   1.8268    
    37.00   1.7661    
    38.00   1.7081    
    39.00   1.6519    
    40.00   1.5973    
    41.00   1.5449    
    42.00   1.4946    
    43.00   1.4459    
    44.00   1.3985    
    45.00   1.3529    
    46.00   1.3091    
    47.00   1.2666    
    48.00   1.2253    
    49.00   1.1855    
    50.00   1.1472    
    51.00   1.1101    
    52.00   1.0741    
    53.00   1.0394    
    54.00   1.0059    
    55.00  0.97352    
    56.00  0.94211    
    57.00  0.91184    
    58.00  0.88266    
    59.00  0.85442    
    60.00  0.82710    
    61.00  0.80078    
    62.00  0.77543    
    63.00  0.75093    
    64.00  0.72725    
    65.00  0.70448    
    66.00  0.68256    
    67.00  0.66141    
    68.00  0.64102    
    69.00  0.62143    
    70.00  0.60262    
    71.00  0.58449    
    72.00  0.56706    
    73.00  0.55036    
    74.00  0.53434    
    75.00  0.51896    
    76.00  0.50420    
    77.00  0.49010    
    78.00  0.47662    
    79.00  0.46369    
    80.00  0.45136    
    81.00  0.43960    
    82.00  0.42838    
    83.00  0.41768    
    84.00  0.40750    
    85.00  0.39782    
    86.00  0.38861    
    87.00  0.37987    
    88.00  0.37158    
    89.00  0.36371    
    90.00  0.35626    
    91.00  0.34921    
    92.00  0.34254    
    93.00  0.33622    
    94.00  0.33027    
    95.00  0.32465    
    96.00  0.31935    
    97.00  0.31435    
    98.00  0.30966    
    99.00  0.30524    
   100.00  0.30109    
   101.00  0.29721    
   102.00  0.29359    
   103.00  0.29019    
   104.00  0.28703    
   105.00  0.28410    
   106.00  0.28139    
   107.00  0.27888    
   108.00  0.27658    
   109.00  0.27448    
   110.00  0.27256    
   111.00  0.27084    
   112.00  0.26930    
   113.00  0.26794    
   114.00  0.26675    
   115.00  0.26574    
   116.00  0.26489    
   117.00  0.26421    
   118.00  0.26369    
   119.00  0.26334    
   120.00  0.26315    
   121.00  0.26312    
   122.00  0.26325    
   123.00  0.26356    
   124.00  0.26403    
   125.00  0.26467    
   126.00  0.26550    
   127.00  0.26652    
   128.00  0.26775    
   129.00  0.26918    
   130.00  0.27086    
   131.00  0.27278    
   132.00  0.27498    
   133.00  0.27747    
   134.00  0.28030    
   135.00  0.28349    
   136.00  0.28707    
   137.00  0.29109    
   138.00  0.29558    
   139.00  0.30059    
   140.00  0.30615    
   141.00  0.31229    
   142.00  0.31903    
   143.00  0.32638    
   144.00  0.33432    
   145.00  0.34283    
   146.00  0.35186    
   147.00  0.36128    
   148.00  0.37095    
   149.00  0.38072    
   150.00  0.39039    
   151.00  0.39969    
   152.00  0.40835    
   153.00  0.41618    
   154.00  0.42289    
   155.00  0.42827    
   156.00  0.43232    
   157.00  0.43513    
   158.00  0.43684    
   159.00  0.43784    
   160.00  0.43878    
   161.00  0.44025    
   162.00  0.44290    
   163.00  0.44767    
   164.00  0.45528    
   165.00  0.46570    
   166.00  0.47863    
   167.00  0.49350    
   168.00  0.50889    
   169.00  0.52356    
   170.00  0.53781    
   171.00  0.55154    
   172.00  0.56209    
   173.00  0.56575    
   174.00  0.55959    
   175.00  0.54181    
   176.00  0.51767    
   177.00  0.50547    
   178.00  0.52266    
   179.00  0.55883    
   180.00  0.57785    
 |--------|------------|
0.510000     micron = Wavelength
0.272126     = Extinction efficiency (Q)
0.252136     = Scattering efficiency (Qs)
0.199894E-01 = Absorption efficiency (Qa)
 23.4708     = Lidar ratio
0.116546E-01 micron^2 = <b> = Average surface area per particle
0.317151E-02 microns^2 = Extinction cross section (C)
0.293854E-02 microns^2 = Scattering cross section (Cs)
0.232969E-03 microns^2 = Absorption cross section (Ca)
 |----------------------------------------------------|
 | COMMENTAIRES:                                      |
 |----------------------------------------------------|
 |   -Cross section / <b> should = efficiency         |
 |    is independant of the normalisation of dN/dx    |
 |   -The integral of the phase fct / 4 pi over all   |
 |    directions (solid angle) = 1.                   |
 |   -The volume coefficient (k) is equal to C * N    |
 |      = cross section * Number density              |
 |      typical units: [um^2]*[particles/cm^3] =      |
 |      [10^-3 km-1]                                  |
 |      N = M/(d*4/3*pi*r^3) where d is the density   |
 |      of particle, M is the mass per unit volume    |
 |      and 4/3*pi*r^3 is the average volume  of a    |
 |      particle.                                     |
 |      typical units:  M -> [ug/m^3], d -> [g/cm^3]  |
 |                      r -> [um]                     |
 |      Lidar ratio= 4 pi Qe / phase_fct(180)*Qs      |
 |----------------------------------------------------|
