 |--------|------------|
 | ANGLE  |  PHASE FCT |
 |--------|------------|
     0.00   25.016    
     1.00   24.883    
     2.00   24.494    
     3.00   23.867    
     4.00   23.032    
     5.00   22.028    
     6.00   20.894    
     7.00   19.671    
     8.00   18.397    
     9.00   17.108    
    10.00   15.830    
    11.00   14.588    
    12.00   13.397    
    13.00   12.272    
    14.00   11.218    
    15.00   10.241    
    16.00   9.3423    
    17.00   8.5201    
    18.00   7.7722    
    19.00   7.0945    
    20.00   6.4827    
    21.00   5.9318    
    22.00   5.4367    
    23.00   4.9923    
    24.00   4.5937    
    25.00   4.2362    
    26.00   3.9154    
    27.00   3.6275    
    28.00   3.3686    
    29.00   3.1355    
    30.00   2.9252    
    31.00   2.7351    
    32.00   2.5627    
    33.00   2.4061    
    34.00   2.2633    
    35.00   2.1328    
    36.00   2.0132    
    37.00   1.9032    
    38.00   1.8018    
    39.00   1.7081    
    40.00   1.6212    
    41.00   1.5404    
    42.00   1.4651    
    43.00   1.3949    
    44.00   1.3292    
    45.00   1.2676    
    46.00   1.2097    
    47.00   1.1553    
    48.00   1.1040    
    49.00   1.0556    
    50.00   1.0100    
    51.00  0.96681    
    52.00  0.92596    
    53.00  0.88727    
    54.00  0.85060    
    55.00  0.81582    
    56.00  0.78281    
    57.00  0.75146    
    58.00  0.72168    
    59.00  0.69337    
    60.00  0.66646    
    61.00  0.64085    
    62.00  0.61650    
    63.00  0.59331    
    64.00  0.57124    
    65.00  0.55022    
    66.00  0.53021    
    67.00  0.51114    
    68.00  0.49298    
    69.00  0.47568    
    70.00  0.45919    
    71.00  0.44348    
    72.00  0.42850    
    73.00  0.41423    
    74.00  0.40063    
    75.00  0.38767    
    76.00  0.37532    
    77.00  0.36355    
    78.00  0.35233    
    79.00  0.34165    
    80.00  0.33147    
    81.00  0.32177    
    82.00  0.31253    
    83.00  0.30374    
    84.00  0.29537    
    85.00  0.28740    
    86.00  0.27982    
    87.00  0.27262    
    88.00  0.26577    
    89.00  0.25926    
    90.00  0.25309    
    91.00  0.24722    
    92.00  0.24167    
    93.00  0.23640    
    94.00  0.23142    
    95.00  0.22671    
    96.00  0.22226    
    97.00  0.21806    
    98.00  0.21410    
    99.00  0.21039    
   100.00  0.20690    
   101.00  0.20363    
   102.00  0.20059    
   103.00  0.19775    
   104.00  0.19511    
   105.00  0.19268    
   106.00  0.19044    
   107.00  0.18839    
   108.00  0.18653    
   109.00  0.18486    
   110.00  0.18337    
   111.00  0.18207    
   112.00  0.18094    
   113.00  0.17999    
   114.00  0.17923    
   115.00  0.17864    
   116.00  0.17824    
   117.00  0.17803    
   118.00  0.17800    
   119.00  0.17817    
   120.00  0.17854    
   121.00  0.17911    
   122.00  0.17989    
   123.00  0.18089    
   124.00  0.18212    
   125.00  0.18359    
   126.00  0.18531    
   127.00  0.18730    
   128.00  0.18957    
   129.00  0.19214    
   130.00  0.19502    
   131.00  0.19825    
   132.00  0.20183    
   133.00  0.20579    
   134.00  0.21015    
   135.00  0.21495    
   136.00  0.22018    
   137.00  0.22590    
   138.00  0.23210    
   139.00  0.23881    
   140.00  0.24604    
   141.00  0.25379    
   142.00  0.26206    
   143.00  0.27084    
   144.00  0.28010    
   145.00  0.28978    
   146.00  0.29982    
   147.00  0.31013    
   148.00  0.32060    
   149.00  0.33108    
   150.00  0.34141    
   151.00  0.35141    
   152.00  0.36085    
   153.00  0.36952    
   154.00  0.37720    
   155.00  0.38368    
   156.00  0.38879    
   157.00  0.39241    
   158.00  0.39451    
   159.00  0.39519    
   160.00  0.39464    
   161.00  0.39325    
   162.00  0.39155    
   163.00  0.39024    
   164.00  0.39015    
   165.00  0.39222    
   166.00  0.39740    
   167.00  0.40661    
   168.00  0.42063    
   169.00  0.44000    
   170.00  0.46492    
   171.00  0.49515    
   172.00  0.52999    
   173.00  0.56826    
   174.00  0.60827    
   175.00  0.64794    
   176.00  0.68495    
   177.00  0.71691    
   178.00  0.74160    
   179.00  0.75721    
   180.00  0.76255    
 |--------|------------|
0.720000     micron = Wavelength
0.112667     = Extinction efficiency (Q)
0.100546     = Scattering efficiency (Qs)
0.121208E-01 = Absorption efficiency (Qa)
 18.4660     = Lidar ratio
0.302566E-02 micron^2 = <b> = Average surface area per particle
0.340892E-03 microns^2 = Extinction cross section (C)
0.304219E-03 microns^2 = Scattering cross section (Cs)
0.366734E-04 microns^2 = Absorption cross section (Ca)
 |----------------------------------------------------|
 | COMMENTAIRES:                                      |
 |----------------------------------------------------|
 |   -Cross section / <b> should = efficiency         |
 |    is independant of the normalisation of dN/dx    |
 |   -The integral of the phase fct / 4 pi over all   |
 |    directions (solid angle) = 1.                   |
 |   -The volume coefficient (k) is equal to C * N    |
 |      = cross section * Number density              |
 |      typical units: [um^2]*[particles/cm^3] =      |
 |      [10^-3 km-1]                                  |
 |      N = M/(d*4/3*pi*r^3) where d is the density   |
 |      of particle, M is the mass per unit volume    |
 |      and 4/3*pi*r^3 is the average volume  of a    |
 |      particle.                                     |
 |      typical units:  M -> [ug/m^3], d -> [g/cm^3]  |
 |                      r -> [um]                     |
 |      Lidar ratio= 4 pi Qe / phase_fct(180)*Qs      |
 |----------------------------------------------------|
