 |--------|------------|
 | ANGLE  |  PHASE FCT |
 |--------|------------|
     0.00   28.311    
     1.00   28.148    
     2.00   27.667    
     3.00   26.896    
     4.00   25.876    
     5.00   24.655    
     6.00   23.287    
     7.00   21.824    
     8.00   20.314    
     9.00   18.797    
    10.00   17.308    
    11.00   15.872    
    12.00   14.508    
    13.00   13.229    
    14.00   12.041    
    15.00   10.948    
    16.00   9.9489    
    17.00   9.0409    
    18.00   8.2196    
    19.00   7.4794    
    20.00   6.8143    
    21.00   6.2178    
    22.00   5.6835    
    23.00   5.2052    
    24.00   4.7771    
    25.00   4.3937    
    26.00   4.0501    
    27.00   3.7417    
    28.00   3.4644    
    29.00   3.2146    
    30.00   2.9891    
    31.00   2.7849    
    32.00   2.5997    
    33.00   2.4312    
    34.00   2.2776    
    35.00   2.1370    
    36.00   2.0081    
    37.00   1.8897    
    38.00   1.7805    
    39.00   1.6797    
    40.00   1.5864    
    41.00   1.4998    
    42.00   1.4193    
    43.00   1.3445    
    44.00   1.2746    
    45.00   1.2094    
    46.00   1.1483    
    47.00   1.0912    
    48.00   1.0376    
    49.00  0.98733    
    50.00  0.94007    
    51.00  0.89564    
    52.00  0.85382    
    53.00  0.81443    
    54.00  0.77730    
    55.00  0.74229    
    56.00  0.70925    
    57.00  0.67806    
    58.00  0.64859    
    59.00  0.62075    
    60.00  0.59443    
    61.00  0.56953    
    62.00  0.54598    
    63.00  0.52368    
    64.00  0.50258    
    65.00  0.48259    
    66.00  0.46366    
    67.00  0.44572    
    68.00  0.42872    
    69.00  0.41261    
    70.00  0.39733    
    71.00  0.38284    
    72.00  0.36911    
    73.00  0.35608    
    74.00  0.34372    
    75.00  0.33199    
    76.00  0.32087    
    77.00  0.31031    
    78.00  0.30030    
    79.00  0.29080    
    80.00  0.28179    
    81.00  0.27325    
    82.00  0.26514    
    83.00  0.25745    
    84.00  0.25016    
    85.00  0.24325    
    86.00  0.23671    
    87.00  0.23051    
    88.00  0.22464    
    89.00  0.21908    
    90.00  0.21383    
    91.00  0.20887    
    92.00  0.20418    
    93.00  0.19976    
    94.00  0.19560    
    95.00  0.19167    
    96.00  0.18799    
    97.00  0.18453    
    98.00  0.18128    
    99.00  0.17825    
   100.00  0.17542    
   101.00  0.17279    
   102.00  0.17035    
   103.00  0.16810    
   104.00  0.16603    
   105.00  0.16413    
   106.00  0.16240    
   107.00  0.16084    
   108.00  0.15945    
   109.00  0.15822    
   110.00  0.15715    
   111.00  0.15623    
   112.00  0.15547    
   113.00  0.15487    
   114.00  0.15442    
   115.00  0.15413    
   116.00  0.15400    
   117.00  0.15402    
   118.00  0.15420    
   119.00  0.15454    
   120.00  0.15505    
   121.00  0.15573    
   122.00  0.15658    
   123.00  0.15761    
   124.00  0.15883    
   125.00  0.16024    
   126.00  0.16185    
   127.00  0.16368    
   128.00  0.16573    
   129.00  0.16802    
   130.00  0.17056    
   131.00  0.17336    
   132.00  0.17644    
   133.00  0.17982    
   134.00  0.18352    
   135.00  0.18757    
   136.00  0.19197    
   137.00  0.19676    
   138.00  0.20196    
   139.00  0.20760    
   140.00  0.21369    
   141.00  0.22026    
   142.00  0.22733    
   143.00  0.23491    
   144.00  0.24302    
   145.00  0.25165    
   146.00  0.26078    
   147.00  0.27041    
   148.00  0.28047    
   149.00  0.29089    
   150.00  0.30159    
   151.00  0.31242    
   152.00  0.32323    
   153.00  0.33381    
   154.00  0.34391    
   155.00  0.35326    
   156.00  0.36155    
   157.00  0.36844    
   158.00  0.37362    
   159.00  0.37679    
   160.00  0.37770    
   161.00  0.37622    
   162.00  0.37232    
   163.00  0.36619    
   164.00  0.35820    
   165.00  0.34892    
   166.00  0.33917    
   167.00  0.32992    
   168.00  0.32228    
   169.00  0.31732    
   170.00  0.31604    
   171.00  0.31914    
   172.00  0.32696    
   173.00  0.33932    
   174.00  0.35547    
   175.00  0.37414    
   176.00  0.39354    
   177.00  0.41167    
   178.00  0.42645    
   179.00  0.43613    
   180.00  0.43950    
 |--------|------------|
0.690000     micron = Wavelength
0.112110     = Extinction efficiency (Q)
0.103744     = Scattering efficiency (Qs)
0.836530E-02 = Absorption efficiency (Qa)
 30.8980     = Lidar ratio
0.313422E-02 micron^2 = <b> = Average surface area per particle
0.351377E-03 microns^2 = Extinction cross section (C)
0.325158E-03 microns^2 = Scattering cross section (Cs)
0.262187E-04 microns^2 = Absorption cross section (Ca)
 |----------------------------------------------------|
 | COMMENTAIRES:                                      |
 |----------------------------------------------------|
 |   -Cross section / <b> should = efficiency         |
 |    is independant of the normalisation of dN/dx    |
 |   -The integral of the phase fct / 4 pi over all   |
 |    directions (solid angle) = 1.                   |
 |   -The volume coefficient (k) is equal to C * N    |
 |      = cross section * Number density              |
 |      typical units: [um^2]*[particles/cm^3] =      |
 |      [10^-3 km-1]                                  |
 |      N = M/(d*4/3*pi*r^3) where d is the density   |
 |      of particle, M is the mass per unit volume    |
 |      and 4/3*pi*r^3 is the average volume  of a    |
 |      particle.                                     |
 |      typical units:  M -> [ug/m^3], d -> [g/cm^3]  |
 |                      r -> [um]                     |
 |      Lidar ratio= 4 pi Qe / phase_fct(180)*Qs      |
 |----------------------------------------------------|
