 |--------|------------|
 | ANGLE  |  PHASE FCT |
 |--------|------------|
     0.00   64.816    
     1.00   63.252    
     2.00   58.885    
     3.00   52.556    
     4.00   45.281    
     5.00   37.947    
     6.00   31.159    
     7.00   25.236    
     8.00   20.285    
     9.00   16.275    
    10.00   13.103    
    11.00   10.635    
    12.00   8.7385    
    13.00   7.2916    
    14.00   6.1917    
    15.00   5.3557    
    16.00   4.7180    
    17.00   4.2280    
    18.00   3.8475    
    19.00   3.5477    
    20.00   3.3073    
    21.00   3.1104    
    22.00   2.9455    
    23.00   2.8042    
    24.00   2.6805    
    25.00   2.5699    
    26.00   2.4694    
    27.00   2.3766    
    28.00   2.2901    
    29.00   2.2086    
    30.00   2.1313    
    31.00   2.0577    
    32.00   1.9872    
    33.00   1.9197    
    34.00   1.8547    
    35.00   1.7923    
    36.00   1.7321    
    37.00   1.6741    
    38.00   1.6182    
    39.00   1.5642    
    40.00   1.5121    
    41.00   1.4620    
    42.00   1.4135    
    43.00   1.3668    
    44.00   1.3218    
    45.00   1.2784    
    46.00   1.2365    
    47.00   1.1961    
    48.00   1.1572    
    49.00   1.1197    
    50.00   1.0835    
    51.00   1.0487    
    52.00   1.0151    
    53.00  0.98281    
    54.00  0.95168    
    55.00  0.92170    
    56.00  0.89284    
    57.00  0.86506    
    58.00  0.83832    
    59.00  0.81259    
    60.00  0.78784    
    61.00  0.76403    
    62.00  0.74114    
    63.00  0.71912    
    64.00  0.69797    
    65.00  0.67764    
    66.00  0.65811    
    67.00  0.63936    
    68.00  0.62135    
    69.00  0.60407    
    70.00  0.58749    
    71.00  0.57159    
    72.00  0.55635    
    73.00  0.54175    
    74.00  0.52777    
    75.00  0.51438    
    76.00  0.50158    
    77.00  0.48933    
    78.00  0.47762    
    79.00  0.46644    
    80.00  0.45577    
    81.00  0.44559    
    82.00  0.43588    
    83.00  0.42664    
    84.00  0.41784    
    85.00  0.40949    
    86.00  0.40154    
    87.00  0.39401    
    88.00  0.38687    
    89.00  0.38011    
    90.00  0.37371    
    91.00  0.36769    
    92.00  0.36200    
    93.00  0.35666    
    94.00  0.35163    
    95.00  0.34693    
    96.00  0.34254    
    97.00  0.33845    
    98.00  0.33464    
    99.00  0.33112    
   100.00  0.32788    
   101.00  0.32490    
   102.00  0.32218    
   103.00  0.31971    
   104.00  0.31749    
   105.00  0.31551    
   106.00  0.31377    
   107.00  0.31225    
   108.00  0.31095    
   109.00  0.30987    
   110.00  0.30900    
   111.00  0.30835    
   112.00  0.30789    
   113.00  0.30764    
   114.00  0.30758    
   115.00  0.30773    
   116.00  0.30806    
   117.00  0.30858    
   118.00  0.30929    
   119.00  0.31019    
   120.00  0.31128    
   121.00  0.31257    
   122.00  0.31404    
   123.00  0.31571    
   124.00  0.31758    
   125.00  0.31965    
   126.00  0.32193    
   127.00  0.32442    
   128.00  0.32714    
   129.00  0.33009    
   130.00  0.33329    
   131.00  0.33675    
   132.00  0.34047    
   133.00  0.34448    
   134.00  0.34880    
   135.00  0.35343    
   136.00  0.35840    
   137.00  0.36373    
   138.00  0.36945    
   139.00  0.37556    
   140.00  0.38210    
   141.00  0.38908    
   142.00  0.39653    
   143.00  0.40447    
   144.00  0.41290    
   145.00  0.42186    
   146.00  0.43135    
   147.00  0.44139    
   148.00  0.45200    
   149.00  0.46321    
   150.00  0.47503    
   151.00  0.48751    
   152.00  0.50068    
   153.00  0.51460    
   154.00  0.52932    
   155.00  0.54491    
   156.00  0.56138    
   157.00  0.57875    
   158.00  0.59692    
   159.00  0.61569    
   160.00  0.63467    
   161.00  0.65322    
   162.00  0.67045    
   163.00  0.68515    
   164.00  0.69589    
   165.00  0.70114    
   166.00  0.69950    
   167.00  0.69006    
   168.00  0.67265    
   169.00  0.64817    
   170.00  0.61865    
   171.00  0.58715    
   172.00  0.55754    
   173.00  0.53414    
   174.00  0.52118    
   175.00  0.52184    
   176.00  0.53696    
   177.00  0.56369    
   178.00  0.59479    
   179.00  0.61994    
   180.00  0.62963    
 |--------|------------|
0.510000     micron = Wavelength
0.145692     = Extinction efficiency (Q)
0.134303     = Scattering efficiency (Qs)
0.113887E-01 = Absorption efficiency (Qa)
 21.6509     = Lidar ratio
0.628002E-02 micron^2 = <b> = Average surface area per particle
0.914947E-03 microns^2 = Extinction cross section (C)
0.843426E-03 microns^2 = Scattering cross section (Cs)
0.715210E-04 microns^2 = Absorption cross section (Ca)
 |----------------------------------------------------|
 | COMMENTAIRES:                                      |
 |----------------------------------------------------|
 |   -Cross section / <b> should = efficiency         |
 |    is independant of the normalisation of dN/dx    |
 |   -The integral of the phase fct / 4 pi over all   |
 |    directions (solid angle) = 1.                   |
 |   -The volume coefficient (k) is equal to C * N    |
 |      = cross section * Number density              |
 |      typical units: [um^2]*[particles/cm^3] =      |
 |      [10^-3 km-1]                                  |
 |      N = M/(d*4/3*pi*r^3) where d is the density   |
 |      of particle, M is the mass per unit volume    |
 |      and 4/3*pi*r^3 is the average volume  of a    |
 |      particle.                                     |
 |      typical units:  M -> [ug/m^3], d -> [g/cm^3]  |
 |                      r -> [um]                     |
 |      Lidar ratio= 4 pi Qe / phase_fct(180)*Qs      |
 |----------------------------------------------------|
