 |--------|------------|
 | ANGLE  |  PHASE FCT |
 |--------|------------|
     0.00   68.285    
     1.00   66.101    
     2.00   60.129    
     3.00   51.806    
     4.00   42.754    
     5.00   34.207    
     6.00   26.833    
     7.00   20.840    
     8.00   16.167    
     9.00   12.630    
    10.00   10.009    
    11.00   8.0893    
    12.00   6.6935    
    13.00   5.6796    
    14.00   4.9398    
    15.00   4.3945    
    16.00   3.9867    
    17.00   3.6758    
    18.00   3.4331    
    19.00   3.2387    
    20.00   3.0784    
    21.00   2.9426    
    22.00   2.8243    
    23.00   2.7190    
    24.00   2.6235    
    25.00   2.5354    
    26.00   2.4531    
    27.00   2.3756    
    28.00   2.3021    
    29.00   2.2320    
    30.00   2.1648    
    31.00   2.1002    
    32.00   2.0380    
    33.00   1.9781    
    34.00   1.9201    
    35.00   1.8640    
    36.00   1.8097    
    37.00   1.7571    
    38.00   1.7061    
    39.00   1.6566    
    40.00   1.6085    
    41.00   1.5619    
    42.00   1.5166    
    43.00   1.4726    
    44.00   1.4299    
    45.00   1.3884    
    46.00   1.3481    
    47.00   1.3090    
    48.00   1.2710    
    49.00   1.2341    
    50.00   1.1983    
    51.00   1.1635    
    52.00   1.1297    
    53.00   1.0970    
    54.00   1.0653    
    55.00   1.0345    
    56.00   1.0046    
    57.00  0.97566    
    58.00  0.94762    
    59.00  0.92046    
    60.00  0.89417    
    61.00  0.86872    
    62.00  0.84410    
    63.00  0.82029    
    64.00  0.79727    
    65.00  0.77503    
    66.00  0.75355    
    67.00  0.73281    
    68.00  0.71280    
    69.00  0.69351    
    70.00  0.67491    
    71.00  0.65699    
    72.00  0.63974    
    73.00  0.62315    
    74.00  0.60719    
    75.00  0.59186    
    76.00  0.57713    
    77.00  0.56300    
    78.00  0.54944    
    79.00  0.53645    
    80.00  0.52401    
    81.00  0.51210    
    82.00  0.50071    
    83.00  0.48984    
    84.00  0.47946    
    85.00  0.46956    
    86.00  0.46013    
    87.00  0.45114    
    88.00  0.44261    
    89.00  0.43450    
    90.00  0.42682    
    91.00  0.41953    
    92.00  0.41265    
    93.00  0.40614    
    94.00  0.40001    
    95.00  0.39424    
    96.00  0.38882    
    97.00  0.38375    
    98.00  0.37900    
    99.00  0.37458    
   100.00  0.37047    
   101.00  0.36666    
   102.00  0.36315    
   103.00  0.35993    
   104.00  0.35698    
   105.00  0.35430    
   106.00  0.35189    
   107.00  0.34973    
   108.00  0.34782    
   109.00  0.34615    
   110.00  0.34471    
   111.00  0.34350    
   112.00  0.34252    
   113.00  0.34175    
   114.00  0.34118    
   115.00  0.34083    
   116.00  0.34068    
   117.00  0.34072    
   118.00  0.34096    
   119.00  0.34138    
   120.00  0.34199    
   121.00  0.34279    
   122.00  0.34378    
   123.00  0.34494    
   124.00  0.34630    
   125.00  0.34784    
   126.00  0.34957    
   127.00  0.35149    
   128.00  0.35361    
   129.00  0.35593    
   130.00  0.35847    
   131.00  0.36123    
   132.00  0.36422    
   133.00  0.36745    
   134.00  0.37095    
   135.00  0.37472    
   136.00  0.37879    
   137.00  0.38316    
   138.00  0.38787    
   139.00  0.39293    
   140.00  0.39836    
   141.00  0.40419    
   142.00  0.41042    
   143.00  0.41707    
   144.00  0.42417    
   145.00  0.43170    
   146.00  0.43968    
   147.00  0.44811    
   148.00  0.45697    
   149.00  0.46625    
   150.00  0.47594    
   151.00  0.48603    
   152.00  0.49649    
   153.00  0.50734    
   154.00  0.51858    
   155.00  0.53024    
   156.00  0.54235    
   157.00  0.55499    
   158.00  0.56819    
   159.00  0.58197    
   160.00  0.59625    
   161.00  0.61083    
   162.00  0.62526    
   163.00  0.63891    
   164.00  0.65080    
   165.00  0.65974    
   166.00  0.66449    
   167.00  0.66400    
   168.00  0.65768    
   169.00  0.64558    
   170.00  0.62850    
   171.00  0.60788    
   172.00  0.58574    
   173.00  0.56489    
   174.00  0.54901    
   175.00  0.54214    
   176.00  0.54756    
   177.00  0.56571    
   178.00  0.59172    
   179.00  0.61517    
   180.00  0.62467    
 |--------|------------|
0.436000     micron = Wavelength
0.181622     = Extinction efficiency (Q)
0.168352     = Scattering efficiency (Qs)
0.132692E-01 = Absorption efficiency (Qa)
 21.7024     = Lidar ratio
0.627997E-02 micron^2 = <b> = Average surface area per particle
0.114058E-02 microns^2 = Extinction cross section (C)
0.105725E-02 microns^2 = Scattering cross section (Cs)
0.833300E-04 microns^2 = Absorption cross section (Ca)
 |----------------------------------------------------|
 | COMMENTAIRES:                                      |
 |----------------------------------------------------|
 |   -Cross section / <b> should = efficiency         |
 |    is independant of the normalisation of dN/dx    |
 |   -The integral of the phase fct / 4 pi over all   |
 |    directions (solid angle) = 1.                   |
 |   -The volume coefficient (k) is equal to C * N    |
 |      = cross section * Number density              |
 |      typical units: [um^2]*[particles/cm^3] =      |
 |      [10^-3 km-1]                                  |
 |      N = M/(d*4/3*pi*r^3) where d is the density   |
 |      of particle, M is the mass per unit volume    |
 |      and 4/3*pi*r^3 is the average volume  of a    |
 |      particle.                                     |
 |      typical units:  M -> [ug/m^3], d -> [g/cm^3]  |
 |                      r -> [um]                     |
 |      Lidar ratio= 4 pi Qe / phase_fct(180)*Qs      |
 |----------------------------------------------------|
