 |--------|------------|
 | ANGLE  |  PHASE FCT |
 |--------|------------|
     0.00   57.967    
     1.00   56.415    
     2.00   52.114    
     3.00   45.968    
     4.00   39.041    
     5.00   32.220    
     6.00   26.062    
     7.00   20.824    
     8.00   16.555    
     9.00   13.182    
    10.00   10.577    
    11.00   8.5963    
    12.00   7.1058    
    13.00   5.9904    
    14.00   5.1564    
    15.00   4.5308    
    16.00   4.0581    
    17.00   3.6969    
    18.00   3.4167    
    19.00   3.1953    
    20.00   3.0166    
    21.00   2.8689    
    22.00   2.7439    
    23.00   2.6356    
    24.00   2.5396    
    25.00   2.4529    
    26.00   2.3734    
    27.00   2.2993    
    28.00   2.2297    
    29.00   2.1636    
    30.00   2.1007    
    31.00   2.0403    
    32.00   1.9822    
    33.00   1.9261    
    34.00   1.8719    
    35.00   1.8195    
    36.00   1.7687    
    37.00   1.7193    
    38.00   1.6714    
    39.00   1.6249    
    40.00   1.5796    
    41.00   1.5357    
    42.00   1.4929    
    43.00   1.4513    
    44.00   1.4109    
    45.00   1.3715    
    46.00   1.3333    
    47.00   1.2960    
    48.00   1.2599    
    49.00   1.2247    
    50.00   1.1905    
    51.00   1.1572    
    52.00   1.1249    
    53.00   1.0936    
    54.00   1.0631    
    55.00   1.0335    
    56.00   1.0048    
    57.00  0.97692    
    58.00  0.94989    
    59.00  0.92368    
    60.00  0.89828    
    61.00  0.87366    
    62.00  0.84982    
    63.00  0.82674    
    64.00  0.80440    
    65.00  0.78280    
    66.00  0.76191    
    67.00  0.74172    
    68.00  0.72222    
    69.00  0.70340    
    70.00  0.68523    
    71.00  0.66772    
    72.00  0.65083    
    73.00  0.63457    
    74.00  0.61891    
    75.00  0.60384    
    76.00  0.58935    
    77.00  0.57543    
    78.00  0.56207    
    79.00  0.54924    
    80.00  0.53694    
    81.00  0.52517    
    82.00  0.51389    
    83.00  0.50311    
    84.00  0.49281    
    85.00  0.48298    
    86.00  0.47360    
    87.00  0.46468    
    88.00  0.45619    
    89.00  0.44812    
    90.00  0.44048    
    91.00  0.43323    
    92.00  0.42639    
    93.00  0.41992    
    94.00  0.41383    
    95.00  0.40811    
    96.00  0.40275    
    97.00  0.39773    
    98.00  0.39305    
    99.00  0.38869    
   100.00  0.38466    
   101.00  0.38095    
   102.00  0.37753    
   103.00  0.37441    
   104.00  0.37157    
   105.00  0.36902    
   106.00  0.36674    
   107.00  0.36471    
   108.00  0.36295    
   109.00  0.36143    
   110.00  0.36015    
   111.00  0.35911    
   112.00  0.35829    
   113.00  0.35770    
   114.00  0.35732    
   115.00  0.35715    
   116.00  0.35718    
   117.00  0.35741    
   118.00  0.35784    
   119.00  0.35846    
   120.00  0.35926    
   121.00  0.36024    
   122.00  0.36141    
   123.00  0.36276    
   124.00  0.36428    
   125.00  0.36598    
   126.00  0.36786    
   127.00  0.36992    
   128.00  0.37216    
   129.00  0.37459    
   130.00  0.37722    
   131.00  0.38004    
   132.00  0.38307    
   133.00  0.38631    
   134.00  0.38978    
   135.00  0.39349    
   136.00  0.39746    
   137.00  0.40170    
   138.00  0.40623    
   139.00  0.41108    
   140.00  0.41626    
   141.00  0.42180    
   142.00  0.42773    
   143.00  0.43407    
   144.00  0.44087    
   145.00  0.44815    
   146.00  0.45595    
   147.00  0.46433    
   148.00  0.47332    
   149.00  0.48298    
   150.00  0.49339    
   151.00  0.50462    
   152.00  0.51674    
   153.00  0.52983    
   154.00  0.54397    
   155.00  0.55921    
   156.00  0.57557    
   157.00  0.59300    
   158.00  0.61134    
   159.00  0.63029    
   160.00  0.64936    
   161.00  0.66783    
   162.00  0.68478    
   163.00  0.69909    
   164.00  0.70955    
   165.00  0.71506    
   166.00  0.71484    
   167.00  0.70862    
   168.00  0.69670    
   169.00  0.67996    
   170.00  0.65977    
   171.00  0.63795    
   172.00  0.61677    
   173.00  0.59908    
   174.00  0.58809    
   175.00  0.58677    
   176.00  0.59670    
   177.00  0.61658    
   178.00  0.64108    
   179.00  0.66156    
   180.00  0.66956    
 |--------|------------|
0.340000     micron = Wavelength
0.170816     = Extinction efficiency (Q)
0.156019     = Scattering efficiency (Qs)
0.147969E-01 = Absorption efficiency (Qa)
 20.5479     = Lidar ratio
0.336362E-02 micron^2 = <b> = Average surface area per particle
0.574559E-03 microns^2 = Extinction cross section (C)
0.524788E-03 microns^2 = Scattering cross section (Cs)
0.497712E-04 microns^2 = Absorption cross section (Ca)
 |----------------------------------------------------|
 | COMMENTAIRES:                                      |
 |----------------------------------------------------|
 |   -Cross section / <b> should = efficiency         |
 |    is independant of the normalisation of dN/dx    |
 |   -The integral of the phase fct / 4 pi over all   |
 |    directions (solid angle) = 1.                   |
 |   -The volume coefficient (k) is equal to C * N    |
 |      = cross section * Number density              |
 |      typical units: [um^2]*[particles/cm^3] =      |
 |      [10^-3 km-1]                                  |
 |      N = M/(d*4/3*pi*r^3) where d is the density   |
 |      of particle, M is the mass per unit volume    |
 |      and 4/3*pi*r^3 is the average volume  of a    |
 |      particle.                                     |
 |      typical units:  M -> [ug/m^3], d -> [g/cm^3]  |
 |                      r -> [um]                     |
 |      Lidar ratio= 4 pi Qe / phase_fct(180)*Qs      |
 |----------------------------------------------------|
