 |--------|------------|
 | ANGLE  |  PHASE FCT |
 |--------|------------|
     0.00   29.857    
     1.00   29.667    
     2.00   29.109    
     3.00   28.217    
     4.00   27.043    
     5.00   25.647    
     6.00   24.095    
     7.00   22.450    
     8.00   20.767    
     9.00   19.093    
    10.00   17.467    
    11.00   15.914    
    12.00   14.455    
    13.00   13.101    
    14.00   11.857    
    15.00   10.723    
    16.00   9.6975    
    17.00   8.7748    
    18.00   7.9482    
    19.00   7.2102    
    20.00   6.5527    
    21.00   5.9681    
    22.00   5.4485    
    23.00   4.9867    
    24.00   4.5760    
    25.00   4.2105    
    26.00   3.8844    
    27.00   3.5931    
    28.00   3.3320    
    29.00   3.0975    
    30.00   2.8861    
    31.00   2.6951    
    32.00   2.5218    
    33.00   2.3641    
    34.00   2.2202    
    35.00   2.0883    
    36.00   1.9673    
    37.00   1.8557    
    38.00   1.7527    
    39.00   1.6572    
    40.00   1.5687    
    41.00   1.4862    
    42.00   1.4094    
    43.00   1.3377    
    44.00   1.2705    
    45.00   1.2077    
    46.00   1.1487    
    47.00   1.0933    
    48.00   1.0412    
    49.00  0.99219    
    50.00  0.94603    
    51.00  0.90251    
    52.00  0.86145    
    53.00  0.82269    
    54.00  0.78610    
    55.00  0.75151    
    56.00  0.71882    
    57.00  0.68790    
    58.00  0.65864    
    59.00  0.63096    
    60.00  0.60474    
    61.00  0.57992    
    62.00  0.55640    
    63.00  0.53412    
    64.00  0.51300    
    65.00  0.49297    
    66.00  0.47399    
    67.00  0.45598    
    68.00  0.43890    
    69.00  0.42270    
    70.00  0.40732    
    71.00  0.39273    
    72.00  0.37889    
    73.00  0.36575    
    74.00  0.35327    
    75.00  0.34144    
    76.00  0.33020    
    77.00  0.31953    
    78.00  0.30940    
    79.00  0.29979    
    80.00  0.29067    
    81.00  0.28202    
    82.00  0.27381    
    83.00  0.26602    
    84.00  0.25863    
    85.00  0.25163    
    86.00  0.24499    
    87.00  0.23871    
    88.00  0.23276    
    89.00  0.22713    
    90.00  0.22180    
    91.00  0.21677    
    92.00  0.21202    
    93.00  0.20754    
    94.00  0.20332    
    95.00  0.19935    
    96.00  0.19562    
    97.00  0.19211    
    98.00  0.18884    
    99.00  0.18578    
   100.00  0.18292    
   101.00  0.18027    
   102.00  0.17781    
   103.00  0.17554    
   104.00  0.17346    
   105.00  0.17156    
   106.00  0.16983    
   107.00  0.16828    
   108.00  0.16690    
   109.00  0.16568    
   110.00  0.16462    
   111.00  0.16372    
   112.00  0.16299    
   113.00  0.16241    
   114.00  0.16200    
   115.00  0.16174    
   116.00  0.16164    
   117.00  0.16170    
   118.00  0.16192    
   119.00  0.16231    
   120.00  0.16287    
   121.00  0.16360    
   122.00  0.16450    
   123.00  0.16559    
   124.00  0.16686    
   125.00  0.16834    
   126.00  0.17002    
   127.00  0.17191    
   128.00  0.17403    
   129.00  0.17639    
   130.00  0.17901    
   131.00  0.18190    
   132.00  0.18507    
   133.00  0.18856    
   134.00  0.19237    
   135.00  0.19653    
   136.00  0.20108    
   137.00  0.20602    
   138.00  0.21140    
   139.00  0.21724    
   140.00  0.22357    
   141.00  0.23042    
   142.00  0.23781    
   143.00  0.24578    
   144.00  0.25433    
   145.00  0.26348    
   146.00  0.27323    
   147.00  0.28356    
   148.00  0.29444    
   149.00  0.30581    
   150.00  0.31757    
   151.00  0.32960    
   152.00  0.34174    
   153.00  0.35377    
   154.00  0.36543    
   155.00  0.37640    
   156.00  0.38635    
   157.00  0.39488    
   158.00  0.40162    
   159.00  0.40617    
   160.00  0.40822    
   161.00  0.40754    
   162.00  0.40403    
   163.00  0.39782    
   164.00  0.38923    
   165.00  0.37888    
   166.00  0.36764    
   167.00  0.35658    
   168.00  0.34697    
   169.00  0.34009    
   170.00  0.33715    
   171.00  0.33905    
   172.00  0.34630    
   173.00  0.35881    
   174.00  0.37586    
   175.00  0.39604    
   176.00  0.41737    
   177.00  0.43753    
   178.00  0.45410    
   179.00  0.46501    
   180.00  0.46881    
 |--------|------------|
0.660000     micron = Wavelength
0.111824     = Extinction efficiency (Q)
0.103061     = Scattering efficiency (Qs)
0.876254E-02 = Absorption efficiency (Qa)
 29.0837     = Lidar ratio
0.313423E-02 micron^2 = <b> = Average surface area per particle
0.350481E-03 microns^2 = Extinction cross section (C)
0.323017E-03 microns^2 = Scattering cross section (Cs)
0.274638E-04 microns^2 = Absorption cross section (Ca)
 |----------------------------------------------------|
 | COMMENTAIRES:                                      |
 |----------------------------------------------------|
 |   -Cross section / <b> should = efficiency         |
 |    is independant of the normalisation of dN/dx    |
 |   -The integral of the phase fct / 4 pi over all   |
 |    directions (solid angle) = 1.                   |
 |   -The volume coefficient (k) is equal to C * N    |
 |      = cross section * Number density              |
 |      typical units: [um^2]*[particles/cm^3] =      |
 |      [10^-3 km-1]                                  |
 |      N = M/(d*4/3*pi*r^3) where d is the density   |
 |      of particle, M is the mass per unit volume    |
 |      and 4/3*pi*r^3 is the average volume  of a    |
 |      particle.                                     |
 |      typical units:  M -> [ug/m^3], d -> [g/cm^3]  |
 |                      r -> [um]                     |
 |      Lidar ratio= 4 pi Qe / phase_fct(180)*Qs      |
 |----------------------------------------------------|
