 |--------|------------|
 | ANGLE  |  PHASE FCT |
 |--------|------------|
     0.00   167.03    
     1.00   156.74    
     2.00   130.24    
     3.00   97.539    
     4.00   67.839    
     5.00   45.467    
     6.00   30.337    
     7.00   20.588    
     8.00   14.446    
     9.00   10.648    
    10.00   8.3034    
    11.00   6.8189    
    12.00   5.8450    
    13.00   5.1811    
    14.00   4.7037    
    15.00   4.3420    
    16.00   4.0568    
    17.00   3.8214    
    18.00   3.6179    
    19.00   3.4385    
    20.00   3.2798    
    21.00   3.1366    
    22.00   3.0039    
    23.00   2.8801    
    24.00   2.7650    
    25.00   2.6580    
    26.00   2.5572    
    27.00   2.4612    
    28.00   2.3700    
    29.00   2.2839    
    30.00   2.2023    
    31.00   2.1241    
    32.00   2.0488    
    33.00   1.9772    
    34.00   1.9090    
    35.00   1.8434    
    36.00   1.7799    
    37.00   1.7192    
    38.00   1.6612    
    39.00   1.6053    
    40.00   1.5511    
    41.00   1.4991    
    42.00   1.4492    
    43.00   1.4011    
    44.00   1.3544    
    45.00   1.3095    
    46.00   1.2663    
    47.00   1.2246    
    48.00   1.1842    
    49.00   1.1453    
    50.00   1.1078    
    51.00   1.0716    
    52.00   1.0365    
    53.00   1.0027    
    54.00  0.97016    
    55.00  0.93869    
    56.00  0.90823    
    57.00  0.87890    
    58.00  0.85065    
    59.00  0.82335    
    60.00  0.79697    
    61.00  0.77157    
    62.00  0.74712    
    63.00  0.72352    
    64.00  0.70075    
    65.00  0.67884    
    66.00  0.65778    
    67.00  0.63748    
    68.00  0.61792    
    69.00  0.59914    
    70.00  0.58112    
    71.00  0.56377    
    72.00  0.54710    
    73.00  0.53114    
    74.00  0.51584    
    75.00  0.50115    
    76.00  0.48708    
    77.00  0.47364    
    78.00  0.46079    
    79.00  0.44849    
    80.00  0.43675    
    81.00  0.42557    
    82.00  0.41491    
    83.00  0.40475    
    84.00  0.39509    
    85.00  0.38591    
    86.00  0.37719    
    87.00  0.36890    
    88.00  0.36106    
    89.00  0.35362    
    90.00  0.34657    
    91.00  0.33992    
    92.00  0.33362    
    93.00  0.32767    
    94.00  0.32206    
    95.00  0.31677    
    96.00  0.31178    
    97.00  0.30709    
    98.00  0.30268    
    99.00  0.29854    
   100.00  0.29466    
   101.00  0.29103    
   102.00  0.28765    
   103.00  0.28449    
   104.00  0.28155    
   105.00  0.27883    
   106.00  0.27632    
   107.00  0.27401    
   108.00  0.27189    
   109.00  0.26997    
   110.00  0.26823    
   111.00  0.26667    
   112.00  0.26530    
   113.00  0.26409    
   114.00  0.26305    
   115.00  0.26218    
   116.00  0.26148    
   117.00  0.26094    
   118.00  0.26056    
   119.00  0.26034    
   120.00  0.26028    
   121.00  0.26039    
   122.00  0.26066    
   123.00  0.26110    
   124.00  0.26171    
   125.00  0.26251    
   126.00  0.26349    
   127.00  0.26467    
   128.00  0.26605    
   129.00  0.26767    
   130.00  0.26953    
   131.00  0.27165    
   132.00  0.27406    
   133.00  0.27679    
   134.00  0.27986    
   135.00  0.28332    
   136.00  0.28718    
   137.00  0.29150    
   138.00  0.29632    
   139.00  0.30167    
   140.00  0.30759    
   141.00  0.31411    
   142.00  0.32124    
   143.00  0.32900    
   144.00  0.33735    
   145.00  0.34629    
   146.00  0.35574    
   147.00  0.36558    
   148.00  0.37568    
   149.00  0.38588    
   150.00  0.39597    
   151.00  0.40568    
   152.00  0.41477    
   153.00  0.42301    
   154.00  0.43015    
   155.00  0.43599    
   156.00  0.44051    
   157.00  0.44383    
   158.00  0.44609    
   159.00  0.44772    
   160.00  0.44937    
   161.00  0.45168    
   162.00  0.45532    
   163.00  0.46123    
   164.00  0.47007    
   165.00  0.48177    
   166.00  0.49592    
   167.00  0.51170    
   168.00  0.52750    
   169.00  0.54192    
   170.00  0.55489    
   171.00  0.56613    
   172.00  0.57327    
   173.00  0.57318    
   174.00  0.56381    
   175.00  0.54497    
   176.00  0.52336    
   177.00  0.51644    
   178.00  0.53847    
   179.00  0.57694    
   180.00  0.59640    
 |--------|------------|
0.530000     micron = Wavelength
0.258438     = Extinction efficiency (Q)
0.238964     = Scattering efficiency (Qs)
0.194743E-01 = Absorption efficiency (Qa)
 22.7874     = Lidar ratio
0.116562E-01 micron^2 = <b> = Average surface area per particle
0.301241E-02 microns^2 = Extinction cross section (C)
0.278541E-02 microns^2 = Scattering cross section (Cs)
0.226996E-03 microns^2 = Absorption cross section (Ca)
 |----------------------------------------------------|
 | COMMENTAIRES:                                      |
 |----------------------------------------------------|
 |   -Cross section / <b> should = efficiency         |
 |    is independant of the normalisation of dN/dx    |
 |   -The integral of the phase fct / 4 pi over all   |
 |    directions (solid angle) = 1.                   |
 |   -The volume coefficient (k) is equal to C * N    |
 |      = cross section * Number density              |
 |      typical units: [um^2]*[particles/cm^3] =      |
 |      [10^-3 km-1]                                  |
 |      N = M/(d*4/3*pi*r^3) where d is the density   |
 |      of particle, M is the mass per unit volume    |
 |      and 4/3*pi*r^3 is the average volume  of a    |
 |      particle.                                     |
 |      typical units:  M -> [ug/m^3], d -> [g/cm^3]  |
 |                      r -> [um]                     |
 |      Lidar ratio= 4 pi Qe / phase_fct(180)*Qs      |
 |----------------------------------------------------|
