 |--------|------------|
 | ANGLE  |  PHASE FCT |
 |--------|------------|
     0.00   42.262    
     1.00   41.812    
     2.00   40.510    
     3.00   38.481    
     4.00   35.902    
     5.00   32.970    
     6.00   29.869    
     7.00   26.759    
     8.00   23.758    
     9.00   20.952    
    10.00   18.388    
    11.00   16.092    
    12.00   14.066    
    13.00   12.300    
    14.00   10.775    
    15.00   9.4678    
    16.00   8.3533    
    17.00   7.4061    
    18.00   6.6027    
    19.00   5.9214    
    20.00   5.3428    
    21.00   4.8503    
    22.00   4.4294    
    23.00   4.0678    
    24.00   3.7552    
    25.00   3.4830    
    26.00   3.2444    
    27.00   3.0334    
    28.00   2.8453    
    29.00   2.6764    
    30.00   2.5235    
    31.00   2.3842    
    32.00   2.2564    
    33.00   2.1385    
    34.00   2.0292    
    35.00   1.9274    
    36.00   1.8323    
    37.00   1.7431    
    38.00   1.6593    
    39.00   1.5804    
    40.00   1.5060    
    41.00   1.4357    
    42.00   1.3692    
    43.00   1.3062    
    44.00   1.2466    
    45.00   1.1901    
    46.00   1.1366    
    47.00   1.0859    
    48.00   1.0377    
    49.00  0.99205    
    50.00  0.94875    
    51.00  0.90765    
    52.00  0.86866    
    53.00  0.83167    
    54.00  0.79657    
    55.00  0.76326    
    56.00  0.73165    
    57.00  0.70166    
    58.00  0.67319    
    59.00  0.64617    
    60.00  0.62052    
    61.00  0.59618    
    62.00  0.57307    
    63.00  0.55113    
    64.00  0.53030    
    65.00  0.51053    
    66.00  0.49175    
    67.00  0.47392    
    68.00  0.45699    
    69.00  0.44091    
    70.00  0.42564    
    71.00  0.41113    
    72.00  0.39736    
    73.00  0.38428    
    74.00  0.37186    
    75.00  0.36006    
    76.00  0.34886    
    77.00  0.33822    
    78.00  0.32813    
    79.00  0.31854    
    80.00  0.30945    
    81.00  0.30082    
    82.00  0.29263    
    83.00  0.28487    
    84.00  0.27751    
    85.00  0.27054    
    86.00  0.26394    
    87.00  0.25770    
    88.00  0.25179    
    89.00  0.24621    
    90.00  0.24094    
    91.00  0.23596    
    92.00  0.23128    
    93.00  0.22687    
    94.00  0.22273    
    95.00  0.21884    
    96.00  0.21520    
    97.00  0.21180    
    98.00  0.20863    
    99.00  0.20568    
   100.00  0.20295    
   101.00  0.20043    
   102.00  0.19811    
   103.00  0.19600    
   104.00  0.19407    
   105.00  0.19233    
   106.00  0.19078    
   107.00  0.18941    
   108.00  0.18821    
   109.00  0.18719    
   110.00  0.18634    
   111.00  0.18567    
   112.00  0.18516    
   113.00  0.18481    
   114.00  0.18464    
   115.00  0.18463    
   116.00  0.18479    
   117.00  0.18511    
   118.00  0.18561    
   119.00  0.18627    
   120.00  0.18712    
   121.00  0.18813    
   122.00  0.18934    
   123.00  0.19072    
   124.00  0.19231    
   125.00  0.19409    
   126.00  0.19608    
   127.00  0.19828    
   128.00  0.20072    
   129.00  0.20339    
   130.00  0.20631    
   131.00  0.20950    
   132.00  0.21297    
   133.00  0.21674    
   134.00  0.22083    
   135.00  0.22526    
   136.00  0.23006    
   137.00  0.23525    
   138.00  0.24087    
   139.00  0.24695    
   140.00  0.25352    
   141.00  0.26063    
   142.00  0.26831    
   143.00  0.27662    
   144.00  0.28561    
   145.00  0.29533    
   146.00  0.30582    
   147.00  0.31715    
   148.00  0.32936    
   149.00  0.34248    
   150.00  0.35654    
   151.00  0.37153    
   152.00  0.38739    
   153.00  0.40405    
   154.00  0.42133    
   155.00  0.43898    
   156.00  0.45665    
   157.00  0.47386    
   158.00  0.49002    
   159.00  0.50439    
   160.00  0.51615    
   161.00  0.52442    
   162.00  0.52831    
   163.00  0.52706    
   164.00  0.52015    
   165.00  0.50742    
   166.00  0.48926    
   167.00  0.46666    
   168.00  0.44126    
   169.00  0.41528    
   170.00  0.39135    
   171.00  0.37219    
   172.00  0.36027    
   173.00  0.35732    
   174.00  0.36393    
   175.00  0.37928    
   176.00  0.40093    
   177.00  0.42508    
   178.00  0.44713    
   179.00  0.46259    
   180.00  0.46814    
 |--------|------------|
0.650000     micron = Wavelength
0.118849     = Extinction efficiency (Q)
0.109533     = Scattering efficiency (Qs)
0.931577E-02 = Absorption efficiency (Qa)
 29.1259     = Lidar ratio
0.446406E-02 micron^2 = <b> = Average surface area per particle
0.530547E-03 microns^2 = Extinction cross section (C)
0.488961E-03 microns^2 = Scattering cross section (Cs)
0.415862E-04 microns^2 = Absorption cross section (Ca)
 |----------------------------------------------------|
 | COMMENTAIRES:                                      |
 |----------------------------------------------------|
 |   -Cross section / <b> should = efficiency         |
 |    is independant of the normalisation of dN/dx    |
 |   -The integral of the phase fct / 4 pi over all   |
 |    directions (solid angle) = 1.                   |
 |   -The volume coefficient (k) is equal to C * N    |
 |      = cross section * Number density              |
 |      typical units: [um^2]*[particles/cm^3] =      |
 |      [10^-3 km-1]                                  |
 |      N = M/(d*4/3*pi*r^3) where d is the density   |
 |      of particle, M is the mass per unit volume    |
 |      and 4/3*pi*r^3 is the average volume  of a    |
 |      particle.                                     |
 |      typical units:  M -> [ug/m^3], d -> [g/cm^3]  |
 |                      r -> [um]                     |
 |      Lidar ratio= 4 pi Qe / phase_fct(180)*Qs      |
 |----------------------------------------------------|
