 |--------|------------|
 | ANGLE  |  PHASE FCT |
 |--------|------------|
     0.00   70.019    
     1.00   67.937    
     2.00   62.210    
     3.00   54.140    
     4.00   45.223    
     5.00   36.645    
     6.00   29.095    
     7.00   22.833    
     8.00   17.855    
     9.00   14.017    
    10.00   11.120    
    11.00   8.9646    
    12.00   7.3736    
    13.00   6.2035    
    14.00   5.3414    
    15.00   4.7022    
    16.00   4.2230    
    17.00   3.8581    
    18.00   3.5747    
    19.00   3.3494    
    20.00   3.1655    
    21.00   3.0113    
    22.00   2.8784    
    23.00   2.7612    
    24.00   2.6558    
    25.00   2.5592    
    26.00   2.4695    
    27.00   2.3853    
    28.00   2.3058    
    29.00   2.2301    
    30.00   2.1578    
    31.00   2.0885    
    32.00   2.0219    
    33.00   1.9578    
    34.00   1.8961    
    35.00   1.8365    
    36.00   1.7789    
    37.00   1.7233    
    38.00   1.6695    
    39.00   1.6175    
    40.00   1.5672    
    41.00   1.5186    
    42.00   1.4715    
    43.00   1.4259    
    44.00   1.3818    
    45.00   1.3392    
    46.00   1.2979    
    47.00   1.2580    
    48.00   1.2194    
    49.00   1.1820    
    50.00   1.1458    
    51.00   1.1109    
    52.00   1.0771    
    53.00   1.0444    
    54.00   1.0128    
    55.00  0.98227    
    56.00  0.95276    
    57.00  0.92426    
    58.00  0.89674    
    59.00  0.87015    
    60.00  0.84449    
    61.00  0.81973    
    62.00  0.79584    
    63.00  0.77280    
    64.00  0.75059    
    65.00  0.72919    
    66.00  0.70857    
    67.00  0.68872    
    68.00  0.66960    
    69.00  0.65122    
    70.00  0.63353    
    71.00  0.61653    
    72.00  0.60020    
    73.00  0.58452    
    74.00  0.56948    
    75.00  0.55505    
    76.00  0.54122    
    77.00  0.52797    
    78.00  0.51529    
    79.00  0.50316    
    80.00  0.49156    
    81.00  0.48049    
    82.00  0.46992    
    83.00  0.45984    
    84.00  0.45024    
    85.00  0.44110    
    86.00  0.43241    
    87.00  0.42415    
    88.00  0.41631    
    89.00  0.40889    
    90.00  0.40186    
    91.00  0.39522    
    92.00  0.38895    
    93.00  0.38304    
    94.00  0.37748    
    95.00  0.37227    
    96.00  0.36738    
    97.00  0.36282    
    98.00  0.35857    
    99.00  0.35461    
   100.00  0.35095    
   101.00  0.34757    
   102.00  0.34447    
   103.00  0.34164    
   104.00  0.33907    
   105.00  0.33675    
   106.00  0.33468    
   107.00  0.33285    
   108.00  0.33125    
   109.00  0.32987    
   110.00  0.32872    
   111.00  0.32779    
   112.00  0.32707    
   113.00  0.32655    
   114.00  0.32624    
   115.00  0.32613    
   116.00  0.32621    
   117.00  0.32649    
   118.00  0.32696    
   119.00  0.32762    
   120.00  0.32847    
   121.00  0.32951    
   122.00  0.33074    
   123.00  0.33216    
   124.00  0.33378    
   125.00  0.33559    
   126.00  0.33762    
   127.00  0.33985    
   128.00  0.34230    
   129.00  0.34497    
   130.00  0.34789    
   131.00  0.35105    
   132.00  0.35447    
   133.00  0.35817    
   134.00  0.36216    
   135.00  0.36646    
   136.00  0.37109    
   137.00  0.37607    
   138.00  0.38141    
   139.00  0.38713    
   140.00  0.39325    
   141.00  0.39978    
   142.00  0.40674    
   143.00  0.41413    
   144.00  0.42195    
   145.00  0.43021    
   146.00  0.43888    
   147.00  0.44794    
   148.00  0.45739    
   149.00  0.46718    
   150.00  0.47729    
   151.00  0.48768    
   152.00  0.49835    
   153.00  0.50928    
   154.00  0.52048    
   155.00  0.53199    
   156.00  0.54389    
   157.00  0.55627    
   158.00  0.56921    
   159.00  0.58277    
   160.00  0.59694    
   161.00  0.61155    
   162.00  0.62619    
   163.00  0.64018    
   164.00  0.65250    
   165.00  0.66181    
   166.00  0.66664    
   167.00  0.66561    
   168.00  0.65782    
   169.00  0.64320    
   170.00  0.62270    
   171.00  0.59838    
   172.00  0.57318    
   173.00  0.55090    
   174.00  0.53590    
   175.00  0.53231    
   176.00  0.54276    
   177.00  0.56643    
   178.00  0.59706    
   179.00  0.62339    
   180.00  0.63383    
 |--------|------------|
0.498000     micron = Wavelength
0.165197     = Extinction efficiency (Q)
0.153511     = Scattering efficiency (Qs)
0.116855E-01 = Absorption efficiency (Qa)
 21.3353     = Lidar ratio
0.747899E-02 micron^2 = <b> = Average surface area per particle
0.123550E-02 microns^2 = Extinction cross section (C)
0.114811E-02 microns^2 = Scattering cross section (Cs)
0.873956E-04 microns^2 = Absorption cross section (Ca)
 |----------------------------------------------------|
 | COMMENTAIRES:                                      |
 |----------------------------------------------------|
 |   -Cross section / <b> should = efficiency         |
 |    is independant of the normalisation of dN/dx    |
 |   -The integral of the phase fct / 4 pi over all   |
 |    directions (solid angle) = 1.                   |
 |   -The volume coefficient (k) is equal to C * N    |
 |      = cross section * Number density              |
 |      typical units: [um^2]*[particles/cm^3] =      |
 |      [10^-3 km-1]                                  |
 |      N = M/(d*4/3*pi*r^3) where d is the density   |
 |      of particle, M is the mass per unit volume    |
 |      and 4/3*pi*r^3 is the average volume  of a    |
 |      particle.                                     |
 |      typical units:  M -> [ug/m^3], d -> [g/cm^3]  |
 |                      r -> [um]                     |
 |      Lidar ratio= 4 pi Qe / phase_fct(180)*Qs      |
 |----------------------------------------------------|
