 |--------|------------|
 | ANGLE  |  PHASE FCT |
 |--------|------------|
     0.00   47.794    
     1.00   47.068    
     2.00   44.991    
     3.00   41.831    
     4.00   37.951    
     5.00   33.720    
     6.00   29.450    
     7.00   25.378    
     8.00   21.651    
     9.00   18.347    
    10.00   15.492    
    11.00   13.071    
    12.00   11.050    
    13.00   9.3831    
    14.00   8.0194    
    15.00   6.9111    
    16.00   6.0139    
    17.00   5.2888    
    18.00   4.7028    
    19.00   4.2280    
    20.00   3.8417    
    21.00   3.5252    
    22.00   3.2638    
    23.00   3.0456    
    24.00   2.8610    
    25.00   2.7028    
    26.00   2.5653    
    27.00   2.4439    
    28.00   2.3353    
    29.00   2.2368    
    30.00   2.1463    
    31.00   2.0625    
    32.00   1.9841    
    33.00   1.9103    
    34.00   1.8403    
    35.00   1.7738    
    36.00   1.7103    
    37.00   1.6495    
    38.00   1.5912    
    39.00   1.5352    
    40.00   1.4814    
    41.00   1.4296    
    42.00   1.3798    
    43.00   1.3319    
    44.00   1.2858    
    45.00   1.2414    
    46.00   1.1987    
    47.00   1.1576    
    48.00   1.1180    
    49.00   1.0800    
    50.00   1.0434    
    51.00   1.0083    
    52.00  0.97450    
    53.00  0.94202    
    54.00  0.91082    
    55.00  0.88084    
    56.00  0.85204    
    57.00  0.82439    
    58.00  0.79784    
    59.00  0.77235    
    60.00  0.74787    
    61.00  0.72439    
    62.00  0.70185    
    63.00  0.68023    
    64.00  0.65949    
    65.00  0.63960    
    66.00  0.62053    
    67.00  0.60224    
    68.00  0.58472    
    69.00  0.56792    
    70.00  0.55183    
    71.00  0.53642    
    72.00  0.52167    
    73.00  0.50754    
    74.00  0.49403    
    75.00  0.48109    
    76.00  0.46873    
    77.00  0.45692    
    78.00  0.44563    
    79.00  0.43485    
    80.00  0.42456    
    81.00  0.41475    
    82.00  0.40540    
    83.00  0.39650    
    84.00  0.38802    
    85.00  0.37996    
    86.00  0.37231    
    87.00  0.36505    
    88.00  0.35816    
    89.00  0.35164    
    90.00  0.34548    
    91.00  0.33966    
    92.00  0.33418    
    93.00  0.32902    
    94.00  0.32418    
    95.00  0.31964    
    96.00  0.31541    
    97.00  0.31146    
    98.00  0.30779    
    99.00  0.30440    
   100.00  0.30127    
   101.00  0.29841    
   102.00  0.29579    
   103.00  0.29342    
   104.00  0.29130    
   105.00  0.28940    
   106.00  0.28773    
   107.00  0.28629    
   108.00  0.28506    
   109.00  0.28405    
   110.00  0.28324    
   111.00  0.28264    
   112.00  0.28224    
   113.00  0.28204    
   114.00  0.28203    
   115.00  0.28222    
   116.00  0.28259    
   117.00  0.28315    
   118.00  0.28390    
   119.00  0.28484    
   120.00  0.28596    
   121.00  0.28727    
   122.00  0.28877    
   123.00  0.29046    
   124.00  0.29235    
   125.00  0.29443    
   126.00  0.29672    
   127.00  0.29922    
   128.00  0.30195    
   129.00  0.30489    
   130.00  0.30808    
   131.00  0.31152    
   132.00  0.31523    
   133.00  0.31922    
   134.00  0.32351    
   135.00  0.32814    
   136.00  0.33311    
   137.00  0.33847    
   138.00  0.34425    
   139.00  0.35048    
   140.00  0.35722    
   141.00  0.36451    
   142.00  0.37241    
   143.00  0.38100    
   144.00  0.39034    
   145.00  0.40052    
   146.00  0.41164    
   147.00  0.42379    
   148.00  0.43708    
   149.00  0.45160    
   150.00  0.46746    
   151.00  0.48473    
   152.00  0.50345    
   153.00  0.52361    
   154.00  0.54512    
   155.00  0.56777    
   156.00  0.59125    
   157.00  0.61504    
   158.00  0.63848    
   159.00  0.66069    
   160.00  0.68063    
   161.00  0.69712    
   162.00  0.70898    
   163.00  0.71510    
   164.00  0.71470    
   165.00  0.70744    
   166.00  0.69361    
   167.00  0.67428    
   168.00  0.65125    
   169.00  0.62699    
   170.00  0.60442    
   171.00  0.58667    
   172.00  0.57669    
   173.00  0.57688    
   174.00  0.58848    
   175.00  0.61106    
   176.00  0.64215    
   177.00  0.67703    
   178.00  0.70930    
   179.00  0.73222    
   180.00  0.74052    
 |--------|------------|
0.440000     micron = Wavelength
0.121875     = Extinction efficiency (Q)
0.110425     = Scattering efficiency (Qs)
0.114501E-01 = Absorption efficiency (Qa)
 18.7292     = Lidar ratio
0.313423E-02 micron^2 = <b> = Average surface area per particle
0.381984E-03 microns^2 = Extinction cross section (C)
0.346097E-03 microns^2 = Scattering cross section (Cs)
0.358872E-04 microns^2 = Absorption cross section (Ca)
 |----------------------------------------------------|
 | COMMENTAIRES:                                      |
 |----------------------------------------------------|
 |   -Cross section / <b> should = efficiency         |
 |    is independant of the normalisation of dN/dx    |
 |   -The integral of the phase fct / 4 pi over all   |
 |    directions (solid angle) = 1.                   |
 |   -The volume coefficient (k) is equal to C * N    |
 |      = cross section * Number density              |
 |      typical units: [um^2]*[particles/cm^3] =      |
 |      [10^-3 km-1]                                  |
 |      N = M/(d*4/3*pi*r^3) where d is the density   |
 |      of particle, M is the mass per unit volume    |
 |      and 4/3*pi*r^3 is the average volume  of a    |
 |      particle.                                     |
 |      typical units:  M -> [ug/m^3], d -> [g/cm^3]  |
 |                      r -> [um]                     |
 |      Lidar ratio= 4 pi Qe / phase_fct(180)*Qs      |
 |----------------------------------------------------|
