 |--------|------------|
 | ANGLE  |  PHASE FCT |
 |--------|------------|
     0.00   99.394    
     1.00   96.521    
     2.00   88.597    
     3.00   77.365    
     4.00   64.853    
     5.00   52.701    
     6.00   41.895    
     7.00   32.841    
     8.00   25.570    
     9.00   19.909    
    10.00   15.597    
    11.00   12.363    
    12.00   9.9591    
    13.00   8.1809    
    14.00   6.8658    
    15.00   5.8891    
    16.00   5.1576    
    17.00   4.6028    
    18.00   4.1745    
    19.00   3.8370    
    20.00   3.5645    
    21.00   3.3389    
    22.00   3.1471    
    23.00   2.9801    
    24.00   2.8316    
    25.00   2.6973    
    26.00   2.5740    
    27.00   2.4595    
    28.00   2.3523    
    29.00   2.2514    
    30.00   2.1559    
    31.00   2.0651    
    32.00   1.9788    
    33.00   1.8964    
    34.00   1.8178    
    35.00   1.7427    
    36.00   1.6709    
    37.00   1.6023    
    38.00   1.5366    
    39.00   1.4738    
    40.00   1.4137    
    41.00   1.3562    
    42.00   1.3013    
    43.00   1.2487    
    44.00   1.1984    
    45.00   1.1503    
    46.00   1.1044    
    47.00   1.0605    
    48.00   1.0185    
    49.00  0.97835    
    50.00  0.94001    
    51.00  0.90337    
    52.00  0.86837    
    53.00  0.83494    
    54.00  0.80301    
    55.00  0.77252    
    56.00  0.74340    
    57.00  0.71560    
    58.00  0.68906    
    59.00  0.66373    
    60.00  0.63955    
    61.00  0.61648    
    62.00  0.59447    
    63.00  0.57347    
    64.00  0.55344    
    65.00  0.53433    
    66.00  0.51612    
    67.00  0.49875    
    68.00  0.48220    
    69.00  0.46643    
    70.00  0.45140    
    71.00  0.43708    
    72.00  0.42346    
    73.00  0.41048    
    74.00  0.39814    
    75.00  0.38639    
    76.00  0.37522    
    77.00  0.36461    
    78.00  0.35452    
    79.00  0.34493    
    80.00  0.33583    
    81.00  0.32719    
    82.00  0.31899    
    83.00  0.31122    
    84.00  0.30386    
    85.00  0.29688    
    86.00  0.29027    
    87.00  0.28402    
    88.00  0.27812    
    89.00  0.27253    
    90.00  0.26726    
    91.00  0.26229    
    92.00  0.25761    
    93.00  0.25320    
    94.00  0.24905    
    95.00  0.24516    
    96.00  0.24151    
    97.00  0.23810    
    98.00  0.23492    
    99.00  0.23195    
   100.00  0.22920    
   101.00  0.22665    
   102.00  0.22429    
   103.00  0.22214    
   104.00  0.22017    
   105.00  0.21838    
   106.00  0.21678    
   107.00  0.21535    
   108.00  0.21409    
   109.00  0.21301    
   110.00  0.21209    
   111.00  0.21135    
   112.00  0.21077    
   113.00  0.21036    
   114.00  0.21012    
   115.00  0.21005    
   116.00  0.21014    
   117.00  0.21042    
   118.00  0.21087    
   119.00  0.21150    
   120.00  0.21232    
   121.00  0.21333    
   122.00  0.21455    
   123.00  0.21598    
   124.00  0.21763    
   125.00  0.21951    
   126.00  0.22164    
   127.00  0.22402    
   128.00  0.22669    
   129.00  0.22965    
   130.00  0.23293    
   131.00  0.23654    
   132.00  0.24052    
   133.00  0.24488    
   134.00  0.24964    
   135.00  0.25485    
   136.00  0.26052    
   137.00  0.26667    
   138.00  0.27335    
   139.00  0.28055    
   140.00  0.28832    
   141.00  0.29664    
   142.00  0.30555    
   143.00  0.31503    
   144.00  0.32506    
   145.00  0.33564    
   146.00  0.34673    
   147.00  0.35829    
   148.00  0.37026    
   149.00  0.38258    
   150.00  0.39520    
   151.00  0.40806    
   152.00  0.42113    
   153.00  0.43439    
   154.00  0.44788    
   155.00  0.46166    
   156.00  0.47588    
   157.00  0.49071    
   158.00  0.50635    
   159.00  0.52298    
   160.00  0.54066    
   161.00  0.55925    
   162.00  0.57829    
   163.00  0.59689    
   164.00  0.61363    
   165.00  0.62658    
   166.00  0.63345    
   167.00  0.63202    
   168.00  0.62065    
   169.00  0.59895    
   170.00  0.56823    
   171.00  0.53174    
   172.00  0.49439    
   173.00  0.46240    
   174.00  0.44251    
   175.00  0.44063    
   176.00  0.45986    
   177.00  0.49788    
   178.00  0.54476    
   179.00  0.58406    
   180.00  0.59947    
 |--------|------------|
0.700000     micron = Wavelength
0.164345     = Extinction efficiency (Q)
0.151780     = Scattering efficiency (Qs)
0.125644E-01 = Absorption efficiency (Qa)
 22.6976     = Lidar ratio
0.957049E-02 micron^2 = <b> = Average surface area per particle
0.157286E-02 microns^2 = Extinction cross section (C)
0.145261E-02 microns^2 = Scattering cross section (Cs)
0.120248E-03 microns^2 = Absorption cross section (Ca)
 |----------------------------------------------------|
 | COMMENTAIRES:                                      |
 |----------------------------------------------------|
 |   -Cross section / <b> should = efficiency         |
 |    is independant of the normalisation of dN/dx    |
 |   -The integral of the phase fct / 4 pi over all   |
 |    directions (solid angle) = 1.                   |
 |   -The volume coefficient (k) is equal to C * N    |
 |      = cross section * Number density              |
 |      typical units: [um^2]*[particles/cm^3] =      |
 |      [10^-3 km-1]                                  |
 |      N = M/(d*4/3*pi*r^3) where d is the density   |
 |      of particle, M is the mass per unit volume    |
 |      and 4/3*pi*r^3 is the average volume  of a    |
 |      particle.                                     |
 |      typical units:  M -> [ug/m^3], d -> [g/cm^3]  |
 |                      r -> [um]                     |
 |      Lidar ratio= 4 pi Qe / phase_fct(180)*Qs      |
 |----------------------------------------------------|
