 |--------|------------|
 | ANGLE  |  PHASE FCT |
 |--------|------------|
     0.00   57.266    
     1.00   55.882    
     2.00   52.024    
     3.00   46.432    
     4.00   40.010    
     5.00   33.542    
     6.00   27.560    
     7.00   22.345    
     8.00   17.989    
     9.00   14.465    
    10.00   11.679    
    11.00   9.5139    
    12.00   7.8514    
    13.00   6.5843    
    14.00   5.6216    
    15.00   4.8901    
    16.00   4.3322    
    17.00   3.9035    
    18.00   3.5706    
    19.00   3.3083    
    20.00   3.0982    
    21.00   2.9264    
    22.00   2.7829    
    23.00   2.6604    
    24.00   2.5534    
    25.00   2.4581    
    26.00   2.3716    
    27.00   2.2920    
    28.00   2.2177    
    29.00   2.1478    
    30.00   2.0815    
    31.00   2.0181    
    32.00   1.9574    
    33.00   1.8990    
    34.00   1.8427    
    35.00   1.7884    
    36.00   1.7358    
    37.00   1.6849    
    38.00   1.6355    
    39.00   1.5877    
    40.00   1.5414    
    41.00   1.4964    
    42.00   1.4528    
    43.00   1.4105    
    44.00   1.3694    
    45.00   1.3296    
    46.00   1.2909    
    47.00   1.2534    
    48.00   1.2171    
    49.00   1.1818    
    50.00   1.1476    
    51.00   1.1145    
    52.00   1.0823    
    53.00   1.0512    
    54.00   1.0210    
    55.00  0.99183    
    56.00  0.96355    
    57.00  0.93616    
    58.00  0.90966    
    59.00  0.88403    
    60.00  0.85923    
    61.00  0.83525    
    62.00  0.81208    
    63.00  0.78968    
    64.00  0.76806    
    65.00  0.74717    
    66.00  0.72702    
    67.00  0.70758    
    68.00  0.68883    
    69.00  0.67076    
    70.00  0.65334    
    71.00  0.63658    
    72.00  0.62044    
    73.00  0.60492    
    74.00  0.59000    
    75.00  0.57565    
    76.00  0.56188    
    77.00  0.54866    
    78.00  0.53598    
    79.00  0.52384    
    80.00  0.51220    
    81.00  0.50106    
    82.00  0.49042    
    83.00  0.48025    
    84.00  0.47054    
    85.00  0.46129    
    86.00  0.45247    
    87.00  0.44409    
    88.00  0.43613    
    89.00  0.42857    
    90.00  0.42141    
    91.00  0.41463    
    92.00  0.40824    
    93.00  0.40221    
    94.00  0.39654    
    95.00  0.39122    
    96.00  0.38624    
    97.00  0.38159    
    98.00  0.37726    
    99.00  0.37325    
   100.00  0.36954    
   101.00  0.36613    
   102.00  0.36301    
   103.00  0.36017    
   104.00  0.35761    
   105.00  0.35531    
   106.00  0.35327    
   107.00  0.35149    
   108.00  0.34995    
   109.00  0.34864    
   110.00  0.34758    
   111.00  0.34673    
   112.00  0.34611    
   113.00  0.34571    
   114.00  0.34551    
   115.00  0.34552    
   116.00  0.34573    
   117.00  0.34613    
   118.00  0.34673    
   119.00  0.34751    
   120.00  0.34849    
   121.00  0.34964    
   122.00  0.35098    
   123.00  0.35251    
   124.00  0.35422    
   125.00  0.35611    
   126.00  0.35818    
   127.00  0.36045    
   128.00  0.36291    
   129.00  0.36556    
   130.00  0.36843    
   131.00  0.37150    
   132.00  0.37480    
   133.00  0.37834    
   134.00  0.38212    
   135.00  0.38617    
   136.00  0.39049    
   137.00  0.39512    
   138.00  0.40006    
   139.00  0.40535    
   140.00  0.41101    
   141.00  0.41707    
   142.00  0.42356    
   143.00  0.43051    
   144.00  0.43797    
   145.00  0.44597    
   146.00  0.45456    
   147.00  0.46380    
   148.00  0.47375    
   149.00  0.48449    
   150.00  0.49609    
   151.00  0.50864    
   152.00  0.52224    
   153.00  0.53696    
   154.00  0.55288    
   155.00  0.57005    
   156.00  0.58844    
   157.00  0.60796    
   158.00  0.62836    
   159.00  0.64926    
   160.00  0.67001    
   161.00  0.68977    
   162.00  0.70745    
   163.00  0.72178    
   164.00  0.73147    
   165.00  0.73535    
   166.00  0.73265    
   167.00  0.72318    
   168.00  0.70746    
   169.00  0.68667    
   170.00  0.66268    
   171.00  0.63788    
   172.00  0.61512    
   173.00  0.59763    
   174.00  0.58869    
   175.00  0.59089    
   176.00  0.60497    
   177.00  0.62862    
   178.00  0.65576    
   179.00  0.67759    
   180.00  0.68599    
 |--------|------------|
0.360000     micron = Wavelength
0.155988     = Extinction efficiency (Q)
0.142605     = Scattering efficiency (Qs)
0.133832E-01 = Absorption efficiency (Qa)
 20.0379     = Lidar ratio
0.336362E-02 micron^2 = <b> = Average surface area per particle
0.524685E-03 microns^2 = Extinction cross section (C)
0.479669E-03 microns^2 = Scattering cross section (Cs)
0.450161E-04 microns^2 = Absorption cross section (Ca)
 |----------------------------------------------------|
 | COMMENTAIRES:                                      |
 |----------------------------------------------------|
 |   -Cross section / <b> should = efficiency         |
 |    is independant of the normalisation of dN/dx    |
 |   -The integral of the phase fct / 4 pi over all   |
 |    directions (solid angle) = 1.                   |
 |   -The volume coefficient (k) is equal to C * N    |
 |      = cross section * Number density              |
 |      typical units: [um^2]*[particles/cm^3] =      |
 |      [10^-3 km-1]                                  |
 |      N = M/(d*4/3*pi*r^3) where d is the density   |
 |      of particle, M is the mass per unit volume    |
 |      and 4/3*pi*r^3 is the average volume  of a    |
 |      particle.                                     |
 |      typical units:  M -> [ug/m^3], d -> [g/cm^3]  |
 |                      r -> [um]                     |
 |      Lidar ratio= 4 pi Qe / phase_fct(180)*Qs      |
 |----------------------------------------------------|
