 |--------|------------|
 | ANGLE  |  PHASE FCT |
 |--------|------------|
     0.00   133.56    
     1.00   120.71    
     2.00   89.497    
     3.00   55.599    
     4.00   30.862    
     5.00   17.457    
     6.00   11.380    
     7.00   8.5020    
     8.00   6.9407    
     9.00   6.1135    
    10.00   5.6629    
    11.00   5.3402    
    12.00   5.0820    
    13.00   4.8847    
    14.00   4.7228    
    15.00   4.5798    
    16.00   4.4539    
    17.00   4.3347    
    18.00   4.2149    
    19.00   4.1021    
    20.00   4.0008    
    21.00   3.9024    
    22.00   3.8009    
    23.00   3.7004    
    24.00   3.6056    
    25.00   3.5143    
    26.00   3.4219    
    27.00   3.3283    
    28.00   3.2368    
    29.00   3.1485    
    30.00   3.0611    
    31.00   2.9727    
    32.00   2.8850    
    33.00   2.8005    
    34.00   2.7178    
    35.00   2.6348    
    36.00   2.5525    
    37.00   2.4730    
    38.00   2.3958    
    39.00   2.3188    
    40.00   2.2428    
    41.00   2.1694    
    42.00   2.0983    
    43.00   2.0278    
    44.00   1.9586    
    45.00   1.8918    
    46.00   1.8271    
    47.00   1.7634    
    48.00   1.7011    
    49.00   1.6410    
    50.00   1.5829    
    51.00   1.5260    
    52.00   1.4705    
    53.00   1.4172    
    54.00   1.3657    
    55.00   1.3153    
    56.00   1.2665    
    57.00   1.2196    
    58.00   1.1744    
    59.00   1.1304    
    60.00   1.0878    
    61.00   1.0470    
    62.00   1.0077    
    63.00  0.96957    
    64.00  0.93285    
    65.00  0.89764    
    66.00  0.86377    
    67.00  0.83107    
    68.00  0.79963    
    69.00  0.76953    
    70.00  0.74063    
    71.00  0.71280    
    72.00  0.68609    
    73.00  0.66057    
    74.00  0.63613    
    75.00  0.61263    
    76.00  0.59012    
    77.00  0.56866    
    78.00  0.54816    
    79.00  0.52848    
    80.00  0.50967    
    81.00  0.49180    
    82.00  0.47474    
    83.00  0.45841    
    84.00  0.44287    
    85.00  0.42812    
    86.00  0.41404    
    87.00  0.40063    
    88.00  0.38790    
    89.00  0.37580    
    90.00  0.36429    
    91.00  0.35337    
    92.00  0.34300    
    93.00  0.33314    
    94.00  0.32380    
    95.00  0.31495    
    96.00  0.30654    
    97.00  0.29855    
    98.00  0.29102    
    99.00  0.28388    
   100.00  0.27709    
   101.00  0.27068    
   102.00  0.26465    
   103.00  0.25893    
   104.00  0.25352    
   105.00  0.24843    
   106.00  0.24365    
   107.00  0.23913    
   108.00  0.23489    
   109.00  0.23093    
   110.00  0.22722    
   111.00  0.22374    
   112.00  0.22050    
   113.00  0.21750    
   114.00  0.21471    
   115.00  0.21213    
   116.00  0.20976    
   117.00  0.20759    
   118.00  0.20561    
   119.00  0.20382    
   120.00  0.20220    
   121.00  0.20076    
   122.00  0.19949    
   123.00  0.19838    
   124.00  0.19744    
   125.00  0.19664    
   126.00  0.19600    
   127.00  0.19552    
   128.00  0.19519    
   129.00  0.19501    
   130.00  0.19498    
   131.00  0.19512    
   132.00  0.19542    
   133.00  0.19590    
   134.00  0.19656    
   135.00  0.19742    
   136.00  0.19849    
   137.00  0.19979    
   138.00  0.20137    
   139.00  0.20324    
   140.00  0.20541    
   141.00  0.20792    
   142.00  0.21080    
   143.00  0.21408    
   144.00  0.21775    
   145.00  0.22184    
   146.00  0.22633    
   147.00  0.23110    
   148.00  0.23608    
   149.00  0.24126    
   150.00  0.24649    
   151.00  0.25147    
   152.00  0.25604    
   153.00  0.26013    
   154.00  0.26344    
   155.00  0.26569    
   156.00  0.26706    
   157.00  0.26767    
   158.00  0.26737    
   159.00  0.26646    
   160.00  0.26563    
   161.00  0.26497    
   162.00  0.26448    
   163.00  0.26507    
   164.00  0.26725    
   165.00  0.27023    
   166.00  0.27397    
   167.00  0.27925    
   168.00  0.28510    
   169.00  0.29053    
   170.00  0.29838    
   171.00  0.31110    
   172.00  0.32609    
   173.00  0.34154    
   174.00  0.35800    
   175.00  0.36603    
   176.00  0.34988    
   177.00  0.31695    
   178.00  0.30018    
   179.00  0.31203    
   180.00  0.32347    
 |--------|------------|
0.340000     micron = Wavelength
0.549226     = Extinction efficiency (Q)
0.521990     = Scattering efficiency (Qs)
0.272366E-01 = Absorption efficiency (Qa)
 40.8763     = Lidar ratio
0.116004E-01 micron^2 = <b> = Average surface area per particle
0.637126E-02 microns^2 = Extinction cross section (C)
0.605531E-02 microns^2 = Scattering cross section (Cs)
0.315956E-03 microns^2 = Absorption cross section (Ca)
 |----------------------------------------------------|
 | COMMENTAIRES:                                      |
 |----------------------------------------------------|
 |   -Cross section / <b> should = efficiency         |
 |    is independant of the normalisation of dN/dx    |
 |   -The integral of the phase fct / 4 pi over all   |
 |    directions (solid angle) = 1.                   |
 |   -The volume coefficient (k) is equal to C * N    |
 |      = cross section * Number density              |
 |      typical units: [um^2]*[particles/cm^3] =      |
 |      [10^-3 km-1]                                  |
 |      N = M/(d*4/3*pi*r^3) where d is the density   |
 |      of particle, M is the mass per unit volume    |
 |      and 4/3*pi*r^3 is the average volume  of a    |
 |      particle.                                     |
 |      typical units:  M -> [ug/m^3], d -> [g/cm^3]  |
 |                      r -> [um]                     |
 |      Lidar ratio= 4 pi Qe / phase_fct(180)*Qs      |
 |----------------------------------------------------|
