 |--------|------------|
 | ANGLE  |  PHASE FCT |
 |--------|------------|
     0.00   63.758    
     1.00   62.241    
     2.00   58.005    
     3.00   51.852    
     4.00   44.760    
     5.00   37.588    
     6.00   30.927    
     7.00   25.094    
     8.00   20.201    
     9.00   16.224    
    10.00   13.068    
    11.00   10.605    
    12.00   8.7072    
    13.00   7.2556    
    14.00   6.1497    
    15.00   5.3076    
    16.00   4.6644    
    17.00   4.1701    
    18.00   3.7864    
    19.00   3.4846    
    20.00   3.2432    
    21.00   3.0464    
    22.00   2.8826    
    23.00   2.7431    
    24.00   2.6218    
    25.00   2.5140    
    26.00   2.4165    
    27.00   2.3271    
    28.00   2.2439    
    29.00   2.1659    
    30.00   2.0921    
    31.00   2.0218    
    32.00   1.9547    
    33.00   1.8903    
    34.00   1.8285    
    35.00   1.7689    
    36.00   1.7116    
    37.00   1.6562    
    38.00   1.6028    
    39.00   1.5513    
    40.00   1.5014    
    41.00   1.4533    
    42.00   1.4068    
    43.00   1.3619    
    44.00   1.3186    
    45.00   1.2767    
    46.00   1.2362    
    47.00   1.1971    
    48.00   1.1594    
    49.00   1.1230    
    50.00   1.0878    
    51.00   1.0538    
    52.00   1.0211    
    53.00  0.98948    
    54.00  0.95899    
    55.00  0.92959    
    56.00  0.90123    
    57.00  0.87390    
    58.00  0.84754    
    59.00  0.82214    
    60.00  0.79767    
    61.00  0.77411    
    62.00  0.75141    
    63.00  0.72956    
    64.00  0.70853    
    65.00  0.68829    
    66.00  0.66883    
    67.00  0.65011    
    68.00  0.63212    
    69.00  0.61483    
    70.00  0.59822    
    71.00  0.58228    
    72.00  0.56698    
    73.00  0.55230    
    74.00  0.53822    
    75.00  0.52473    
    76.00  0.51180    
    77.00  0.49943    
    78.00  0.48759    
    79.00  0.47626    
    80.00  0.46544    
    81.00  0.45510    
    82.00  0.44524    
    83.00  0.43583    
    84.00  0.42687    
    85.00  0.41834    
    86.00  0.41023    
    87.00  0.40252    
    88.00  0.39521    
    89.00  0.38828    
    90.00  0.38172    
    91.00  0.37553    
    92.00  0.36968    
    93.00  0.36418    
    94.00  0.35900    
    95.00  0.35416    
    96.00  0.34962    
    97.00  0.34539    
    98.00  0.34145    
    99.00  0.33780    
   100.00  0.33443    
   101.00  0.33134    
   102.00  0.32850    
   103.00  0.32593    
   104.00  0.32361    
   105.00  0.32154    
   106.00  0.31970    
   107.00  0.31810    
   108.00  0.31672    
   109.00  0.31557    
   110.00  0.31463    
   111.00  0.31391    
   112.00  0.31339    
   113.00  0.31307    
   114.00  0.31295    
   115.00  0.31303    
   116.00  0.31330    
   117.00  0.31376    
   118.00  0.31441    
   119.00  0.31525    
   120.00  0.31627    
   121.00  0.31749    
   122.00  0.31888    
   123.00  0.32047    
   124.00  0.32225    
   125.00  0.32422    
   126.00  0.32640    
   127.00  0.32877    
   128.00  0.33137    
   129.00  0.33418    
   130.00  0.33723    
   131.00  0.34051    
   132.00  0.34406    
   133.00  0.34787    
   134.00  0.35197    
   135.00  0.35638    
   136.00  0.36111    
   137.00  0.36620    
   138.00  0.37165    
   139.00  0.37750    
   140.00  0.38378    
   141.00  0.39052    
   142.00  0.39773    
   143.00  0.40547    
   144.00  0.41375    
   145.00  0.42263    
   146.00  0.43213    
   147.00  0.44231    
   148.00  0.45321    
   149.00  0.46489    
   150.00  0.47741    
   151.00  0.49086    
   152.00  0.50530    
   153.00  0.52082    
   154.00  0.53748    
   155.00  0.55535    
   156.00  0.57441    
   157.00  0.59458    
   158.00  0.61568    
   159.00  0.63731    
   160.00  0.65891    
   161.00  0.67960    
   162.00  0.69826    
   163.00  0.71354    
   164.00  0.72391    
   165.00  0.72795    
   166.00  0.72454    
   167.00  0.71318    
   168.00  0.69419    
   169.00  0.66884    
   170.00  0.63933    
   171.00  0.60863    
   172.00  0.58031    
   173.00  0.55834    
   174.00  0.54660    
   175.00  0.54803    
   176.00  0.56331    
   177.00  0.58963    
   178.00  0.61999    
   179.00  0.64442    
   180.00  0.65382    
 |--------|------------|
0.436000     micron = Wavelength
0.148024     = Extinction efficiency (Q)
0.135535     = Scattering efficiency (Qs)
0.124890E-01 = Absorption efficiency (Qa)
 20.9911     = Lidar ratio
0.446408E-02 micron^2 = <b> = Average surface area per particle
0.660789E-03 microns^2 = Extinction cross section (C)
0.605037E-03 microns^2 = Scattering cross section (Cs)
0.557520E-04 microns^2 = Absorption cross section (Ca)
 |----------------------------------------------------|
 | COMMENTAIRES:                                      |
 |----------------------------------------------------|
 |   -Cross section / <b> should = efficiency         |
 |    is independant of the normalisation of dN/dx    |
 |   -The integral of the phase fct / 4 pi over all   |
 |    directions (solid angle) = 1.                   |
 |   -The volume coefficient (k) is equal to C * N    |
 |      = cross section * Number density              |
 |      typical units: [um^2]*[particles/cm^3] =      |
 |      [10^-3 km-1]                                  |
 |      N = M/(d*4/3*pi*r^3) where d is the density   |
 |      of particle, M is the mass per unit volume    |
 |      and 4/3*pi*r^3 is the average volume  of a    |
 |      particle.                                     |
 |      typical units:  M -> [ug/m^3], d -> [g/cm^3]  |
 |                      r -> [um]                     |
 |      Lidar ratio= 4 pi Qe / phase_fct(180)*Qs      |
 |----------------------------------------------------|
