 |--------|------------|
 | ANGLE  |  PHASE FCT |
 |--------|------------|
     0.00   36.422    
     1.00   36.063    
     2.00   35.020    
     3.00   33.383    
     4.00   31.286    
     5.00   28.876    
     6.00   26.298    
     7.00   23.681    
     8.00   21.125    
     9.00   18.704    
    10.00   16.468    
    11.00   14.442    
    12.00   12.636    
    13.00   11.048    
    14.00   9.6663    
    15.00   8.4742    
    16.00   7.4528    
    17.00   6.5821    
    18.00   5.8428    
    19.00   5.2164    
    20.00   4.6863    
    21.00   4.2377    
    22.00   3.8576    
    23.00   3.5347    
    24.00   3.2595    
    25.00   3.0238    
    26.00   2.8208    
    27.00   2.6448    
    28.00   2.4910    
    29.00   2.3556    
    30.00   2.2352    
    31.00   2.1274    
    32.00   2.0298    
    33.00   1.9408    
    34.00   1.8591    
    35.00   1.7834    
    36.00   1.7128    
    37.00   1.6466    
    38.00   1.5843    
    39.00   1.5253    
    40.00   1.4693    
    41.00   1.4160    
    42.00   1.3651    
    43.00   1.3165    
    44.00   1.2699    
    45.00   1.2252    
    46.00   1.1823    
    47.00   1.1411    
    48.00   1.1015    
    49.00   1.0635    
    50.00   1.0270    
    51.00  0.99184    
    52.00  0.95805    
    53.00  0.92557    
    54.00  0.89434    
    55.00  0.86433    
    56.00  0.83546    
    57.00  0.80773    
    58.00  0.78108    
    59.00  0.75547    
    60.00  0.73086    
    61.00  0.70722    
    62.00  0.68452    
    63.00  0.66272    
    64.00  0.64179    
    65.00  0.62170    
    66.00  0.60241    
    67.00  0.58391    
    68.00  0.56616    
    69.00  0.54913    
    70.00  0.53279    
    71.00  0.51714    
    72.00  0.50213    
    73.00  0.48775    
    74.00  0.47397    
    75.00  0.46078    
    76.00  0.44815    
    77.00  0.43606    
    78.00  0.42450    
    79.00  0.41344    
    80.00  0.40287    
    81.00  0.39278    
    82.00  0.38314    
    83.00  0.37394    
    84.00  0.36517    
    85.00  0.35681    
    86.00  0.34885    
    87.00  0.34127    
    88.00  0.33407    
    89.00  0.32723    
    90.00  0.32074    
    91.00  0.31459    
    92.00  0.30877    
    93.00  0.30327    
    94.00  0.29808    
    95.00  0.29318    
    96.00  0.28858    
    97.00  0.28426    
    98.00  0.28022    
    99.00  0.27644    
   100.00  0.27292    
   101.00  0.26965    
   102.00  0.26662    
   103.00  0.26384    
   104.00  0.26128    
   105.00  0.25895    
   106.00  0.25685    
   107.00  0.25495    
   108.00  0.25327    
   109.00  0.25180    
   110.00  0.25053    
   111.00  0.24946    
   112.00  0.24858    
   113.00  0.24790    
   114.00  0.24740    
   115.00  0.24710    
   116.00  0.24698    
   117.00  0.24705    
   118.00  0.24731    
   119.00  0.24775    
   120.00  0.24839    
   121.00  0.24921    
   122.00  0.25023    
   123.00  0.25145    
   124.00  0.25288    
   125.00  0.25452    
   126.00  0.25639    
   127.00  0.25849    
   128.00  0.26084    
   129.00  0.26345    
   130.00  0.26634    
   131.00  0.26954    
   132.00  0.27307    
   133.00  0.27696    
   134.00  0.28125    
   135.00  0.28597    
   136.00  0.29118    
   137.00  0.29691    
   138.00  0.30322    
   139.00  0.31019    
   140.00  0.31786    
   141.00  0.32631    
   142.00  0.33562    
   143.00  0.34584    
   144.00  0.35705    
   145.00  0.36929    
   146.00  0.38261    
   147.00  0.39702    
   148.00  0.41249    
   149.00  0.42897    
   150.00  0.44635    
   151.00  0.46446    
   152.00  0.48303    
   153.00  0.50176    
   154.00  0.52023    
   155.00  0.53800    
   156.00  0.55454    
   157.00  0.56931    
   158.00  0.58183    
   159.00  0.59169    
   160.00  0.59864    
   161.00  0.60269    
   162.00  0.60415    
   163.00  0.60373    
   164.00  0.60248    
   165.00  0.60184    
   166.00  0.60352    
   167.00  0.60939    
   168.00  0.62132    
   169.00  0.64100    
   170.00  0.66972    
   171.00  0.70823    
   172.00  0.75643    
   173.00  0.81324    
   174.00  0.87647    
   175.00  0.94273    
   176.00   1.0076    
   177.00   1.0660    
   178.00   1.1125    
   179.00   1.1426    
   180.00   1.1530    
 |--------|------------|
0.540000     micron = Wavelength
0.113189     = Extinction efficiency (Q)
0.995066E-01 = Scattering efficiency (Qs)
0.136823E-01 = Absorption efficiency (Qa)
 12.3977     = Lidar ratio
0.302566E-02 micron^2 = <b> = Average surface area per particle
0.342471E-03 microns^2 = Extinction cross section (C)
0.301073E-03 microns^2 = Scattering cross section (Cs)
0.413979E-04 microns^2 = Absorption cross section (Ca)
 |----------------------------------------------------|
 | COMMENTAIRES:                                      |
 |----------------------------------------------------|
 |   -Cross section / <b> should = efficiency         |
 |    is independant of the normalisation of dN/dx    |
 |   -The integral of the phase fct / 4 pi over all   |
 |    directions (solid angle) = 1.                   |
 |   -The volume coefficient (k) is equal to C * N    |
 |      = cross section * Number density              |
 |      typical units: [um^2]*[particles/cm^3] =      |
 |      [10^-3 km-1]                                  |
 |      N = M/(d*4/3*pi*r^3) where d is the density   |
 |      of particle, M is the mass per unit volume    |
 |      and 4/3*pi*r^3 is the average volume  of a    |
 |      particle.                                     |
 |      typical units:  M -> [ug/m^3], d -> [g/cm^3]  |
 |                      r -> [um]                     |
 |      Lidar ratio= 4 pi Qe / phase_fct(180)*Qs      |
 |----------------------------------------------------|
