 |--------|------------|
 | ANGLE  |  PHASE FCT |
 |--------|------------|
     0.00   48.945    
     1.00   47.776    
     2.00   44.514    
     3.00   39.784    
     4.00   34.342    
     5.00   28.853    
     6.00   23.768    
     7.00   19.328    
     8.00   15.611    
     9.00   12.599    
    10.00   10.215    
    11.00   8.3603    
    12.00   6.9346    
    13.00   5.8474    
    14.00   5.0215    
    15.00   4.3941    
    16.00   3.9155    
    17.00   3.5478    
    18.00   3.2620    
    19.00   3.0369    
    20.00   2.8564    
    21.00   2.7089    
    22.00   2.5861    
    23.00   2.4816    
    24.00   2.3909    
    25.00   2.3106    
    26.00   2.2383    
    27.00   2.1722    
    28.00   2.1109    
    29.00   2.0535    
    30.00   1.9993    
    31.00   1.9475    
    32.00   1.8980    
    33.00   1.8503    
    34.00   1.8042    
    35.00   1.7595    
    36.00   1.7162    
    37.00   1.6740    
    38.00   1.6330    
    39.00   1.5930    
    40.00   1.5540    
    41.00   1.5159    
    42.00   1.4787    
    43.00   1.4424    
    44.00   1.4069    
    45.00   1.3722    
    46.00   1.3384    
    47.00   1.3052    
    48.00   1.2728    
    49.00   1.2412    
    50.00   1.2103    
    51.00   1.1801    
    52.00   1.1506    
    53.00   1.1217    
    54.00   1.0936    
    55.00   1.0661    
    56.00   1.0393    
    57.00   1.0132    
    58.00  0.98773    
    59.00  0.96290    
    60.00  0.93870    
    61.00  0.91515    
    62.00  0.89221    
    63.00  0.86991    
    64.00  0.84821    
    65.00  0.82712    
    66.00  0.80664    
    67.00  0.78675    
    68.00  0.76746    
    69.00  0.74875    
    70.00  0.73062    
    71.00  0.71305    
    72.00  0.69605    
    73.00  0.67961    
    74.00  0.66372    
    75.00  0.64837    
    76.00  0.63356    
    77.00  0.61928    
    78.00  0.60552    
    79.00  0.59228    
    80.00  0.57954    
    81.00  0.56731    
    82.00  0.55557    
    83.00  0.54432    
    84.00  0.53354    
    85.00  0.52323    
    86.00  0.51339    
    87.00  0.50400    
    88.00  0.49506    
    89.00  0.48656    
    90.00  0.47849    
    91.00  0.47083    
    92.00  0.46360    
    93.00  0.45676    
    94.00  0.45032    
    95.00  0.44427    
    96.00  0.43860    
    97.00  0.43329    
    98.00  0.42835    
    99.00  0.42376    
   100.00  0.41952    
   101.00  0.41560    
   102.00  0.41202    
   103.00  0.40875    
   104.00  0.40579    
   105.00  0.40312    
   106.00  0.40075    
   107.00  0.39866    
   108.00  0.39685    
   109.00  0.39530    
   110.00  0.39401    
   111.00  0.39296    
   112.00  0.39215    
   113.00  0.39158    
   114.00  0.39124    
   115.00  0.39111    
   116.00  0.39119    
   117.00  0.39148    
   118.00  0.39195    
   119.00  0.39262    
   120.00  0.39348    
   121.00  0.39451    
   122.00  0.39572    
   123.00  0.39708    
   124.00  0.39861    
   125.00  0.40030    
   126.00  0.40214    
   127.00  0.40414    
   128.00  0.40627    
   129.00  0.40856    
   130.00  0.41099    
   131.00  0.41356    
   132.00  0.41628    
   133.00  0.41914    
   134.00  0.42216    
   135.00  0.42533    
   136.00  0.42867    
   137.00  0.43219    
   138.00  0.43589    
   139.00  0.43981    
   140.00  0.44396    
   141.00  0.44838    
   142.00  0.45310    
   143.00  0.45818    
   144.00  0.46367    
   145.00  0.46964    
   146.00  0.47616    
   147.00  0.48333    
   148.00  0.49125    
   149.00  0.50003    
   150.00  0.50976    
   151.00  0.52055    
   152.00  0.53249    
   153.00  0.54562    
   154.00  0.55995    
   155.00  0.57539    
   156.00  0.59178    
   157.00  0.60880    
   158.00  0.62605    
   159.00  0.64300    
   160.00  0.65910    
   161.00  0.67384    
   162.00  0.68682    
   163.00  0.69795    
   164.00  0.70735    
   165.00  0.71545    
   166.00  0.72275    
   167.00  0.72975    
   168.00  0.73684    
   169.00  0.74436    
   170.00  0.75271    
   171.00  0.76254    
   172.00  0.77495    
   173.00  0.79140    
   174.00  0.81352    
   175.00  0.84226    
   176.00  0.87709    
   177.00  0.91504    
   178.00  0.95045    
   179.00  0.97603    
   180.00  0.98541    
 |--------|------------|
0.340000     micron = Wavelength
0.183866     = Extinction efficiency (Q)
0.162655     = Scattering efficiency (Qs)
0.212102E-01 = Absorption efficiency (Qa)
 14.4154     = Lidar ratio
0.302566E-02 micron^2 = <b> = Average surface area per particle
0.556315E-03 microns^2 = Extinction cross section (C)
0.492140E-03 microns^2 = Scattering cross section (Cs)
0.641750E-04 microns^2 = Absorption cross section (Ca)
 |----------------------------------------------------|
 | COMMENTAIRES:                                      |
 |----------------------------------------------------|
 |   -Cross section / <b> should = efficiency         |
 |    is independant of the normalisation of dN/dx    |
 |   -The integral of the phase fct / 4 pi over all   |
 |    directions (solid angle) = 1.                   |
 |   -The volume coefficient (k) is equal to C * N    |
 |      = cross section * Number density              |
 |      typical units: [um^2]*[particles/cm^3] =      |
 |      [10^-3 km-1]                                  |
 |      N = M/(d*4/3*pi*r^3) where d is the density   |
 |      of particle, M is the mass per unit volume    |
 |      and 4/3*pi*r^3 is the average volume  of a    |
 |      particle.                                     |
 |      typical units:  M -> [ug/m^3], d -> [g/cm^3]  |
 |                      r -> [um]                     |
 |      Lidar ratio= 4 pi Qe / phase_fct(180)*Qs      |
 |----------------------------------------------------|
