 |--------|------------|
 | ANGLE  |  PHASE FCT |
 |--------|------------|
     0.00   67.930    
     1.00   65.873    
     2.00   60.227    
     3.00   52.292    
     4.00   43.557    
     5.00   35.192    
     6.00   27.866    
     7.00   21.819    
     8.00   17.035    
     9.00   13.362    
    10.00   10.603    
    11.00   8.5577    
    12.00   7.0539    
    13.00   5.9513    
    14.00   5.1410    
    15.00   4.5410    
    16.00   4.0915    
    17.00   3.7492    
    18.00   3.4832    
    19.00   3.2714    
    20.00   3.0984    
    21.00   2.9530    
    22.00   2.8276    
    23.00   2.7170    
    24.00   2.6174    
    25.00   2.5260    
    26.00   2.4412    
    27.00   2.3615    
    28.00   2.2862    
    29.00   2.2145    
    30.00   2.1459    
    31.00   2.0802    
    32.00   2.0169    
    33.00   1.9560    
    34.00   1.8972    
    35.00   1.8403    
    36.00   1.7853    
    37.00   1.7321    
    38.00   1.6806    
    39.00   1.6306    
    40.00   1.5822    
    41.00   1.5353    
    42.00   1.4898    
    43.00   1.4456    
    44.00   1.4028    
    45.00   1.3613    
    46.00   1.3210    
    47.00   1.2820    
    48.00   1.2441    
    49.00   1.2074    
    50.00   1.1718    
    51.00   1.1373    
    52.00   1.1039    
    53.00   1.0715    
    54.00   1.0401    
    55.00   1.0097    
    56.00  0.98022    
    57.00  0.95173    
    58.00  0.92414    
    59.00  0.89746    
    60.00  0.87165    
    61.00  0.84670    
    62.00  0.82258    
    63.00  0.79928    
    64.00  0.77678    
    65.00  0.75506    
    66.00  0.73410    
    67.00  0.71389    
    68.00  0.69440    
    69.00  0.67562    
    70.00  0.65754    
    71.00  0.64013    
    72.00  0.62338    
    73.00  0.60728    
    74.00  0.59180    
    75.00  0.57694    
    76.00  0.56268    
    77.00  0.54900    
    78.00  0.53589    
    79.00  0.52333    
    80.00  0.51131    
    81.00  0.49981    
    82.00  0.48882    
    83.00  0.47834    
    84.00  0.46833    
    85.00  0.45879    
    86.00  0.44971    
    87.00  0.44107    
    88.00  0.43286    
    89.00  0.42507    
    90.00  0.41769    
    91.00  0.41070    
    92.00  0.40410    
    93.00  0.39787    
    94.00  0.39200    
    95.00  0.38648    
    96.00  0.38131    
    97.00  0.37647    
    98.00  0.37195    
    99.00  0.36774    
   100.00  0.36384    
   101.00  0.36023    
   102.00  0.35691    
   103.00  0.35387    
   104.00  0.35111    
   105.00  0.34860    
   106.00  0.34635    
   107.00  0.34435    
   108.00  0.34260    
   109.00  0.34108    
   110.00  0.33979    
   111.00  0.33872    
   112.00  0.33787    
   113.00  0.33723    
   114.00  0.33680    
   115.00  0.33657    
   116.00  0.33655    
   117.00  0.33671    
   118.00  0.33707    
   119.00  0.33762    
   120.00  0.33836    
   121.00  0.33928    
   122.00  0.34039    
   123.00  0.34169    
   124.00  0.34317    
   125.00  0.34484    
   126.00  0.34671    
   127.00  0.34877    
   128.00  0.35104    
   129.00  0.35352    
   130.00  0.35622    
   131.00  0.35914    
   132.00  0.36231    
   133.00  0.36573    
   134.00  0.36942    
   135.00  0.37340    
   136.00  0.37768    
   137.00  0.38228    
   138.00  0.38723    
   139.00  0.39254    
   140.00  0.39823    
   141.00  0.40433    
   142.00  0.41085    
   143.00  0.41781    
   144.00  0.42521    
   145.00  0.43308    
   146.00  0.44141    
   147.00  0.45020    
   148.00  0.45945    
   149.00  0.46916    
   150.00  0.47931    
   151.00  0.48991    
   152.00  0.50094    
   153.00  0.51244    
   154.00  0.52440    
   155.00  0.53688    
   156.00  0.54993    
   157.00  0.56359    
   158.00  0.57791    
   159.00  0.59285    
   160.00  0.60829    
   161.00  0.62394    
   162.00  0.63928    
   163.00  0.65352    
   164.00  0.66558    
   165.00  0.67418    
   166.00  0.67799    
   167.00  0.67596    
   168.00  0.66753    
   169.00  0.65288    
   170.00  0.63306    
   171.00  0.60983    
   172.00  0.58565    
   173.00  0.56376    
   174.00  0.54806    
   175.00  0.54254    
   176.00  0.55006    
   177.00  0.57029    
   178.00  0.59773    
   179.00  0.62181    
   180.00  0.63145    
 |--------|------------|
0.450000     micron = Wavelength
0.172761     = Extinction efficiency (Q)
0.159918     = Scattering efficiency (Qs)
0.128422E-01 = Absorption efficiency (Qa)
 21.4991     = Lidar ratio
0.628001E-02 micron^2 = <b> = Average surface area per particle
0.108494E-02 microns^2 = Extinction cross section (C)
0.100429E-02 microns^2 = Scattering cross section (Cs)
0.806493E-04 microns^2 = Absorption cross section (Ca)
 |----------------------------------------------------|
 | COMMENTAIRES:                                      |
 |----------------------------------------------------|
 |   -Cross section / <b> should = efficiency         |
 |    is independant of the normalisation of dN/dx    |
 |   -The integral of the phase fct / 4 pi over all   |
 |    directions (solid angle) = 1.                   |
 |   -The volume coefficient (k) is equal to C * N    |
 |      = cross section * Number density              |
 |      typical units: [um^2]*[particles/cm^3] =      |
 |      [10^-3 km-1]                                  |
 |      N = M/(d*4/3*pi*r^3) where d is the density   |
 |      of particle, M is the mass per unit volume    |
 |      and 4/3*pi*r^3 is the average volume  of a    |
 |      particle.                                     |
 |      typical units:  M -> [ug/m^3], d -> [g/cm^3]  |
 |                      r -> [um]                     |
 |      Lidar ratio= 4 pi Qe / phase_fct(180)*Qs      |
 |----------------------------------------------------|
