 |--------|------------|
 | ANGLE  |  PHASE FCT |
 |--------|------------|
     0.00   37.478    
     1.00   37.132    
     2.00   36.125    
     3.00   34.543    
     4.00   32.509    
     5.00   30.165    
     6.00   27.646    
     7.00   25.076    
     8.00   22.552    
     9.00   20.147    
    10.00   17.909    
    11.00   15.866    
    12.00   14.028    
    13.00   12.397    
    14.00   10.962    
    15.00   9.7107    
    16.00   8.6248    
    17.00   7.6867    
    18.00   6.8786    
    19.00   6.1835    
    20.00   5.5855    
    21.00   5.0704    
    22.00   4.6259    
    23.00   4.2409    
    24.00   3.9061    
    25.00   3.6135    
    26.00   3.3563    
    27.00   3.1289    
    28.00   2.9265    
    29.00   2.7451    
    30.00   2.5816    
    31.00   2.4333    
    32.00   2.2980    
    33.00   2.1738    
    34.00   2.0593    
    35.00   1.9533    
    36.00   1.8547    
    37.00   1.7627    
    38.00   1.6767    
    39.00   1.5960    
    40.00   1.5201    
    41.00   1.4487    
    42.00   1.3813    
    43.00   1.3177    
    44.00   1.2576    
    45.00   1.2007    
    46.00   1.1469    
    47.00   1.0959    
    48.00   1.0476    
    49.00   1.0018    
    50.00  0.95837    
    51.00  0.91719    
    52.00  0.87813    
    53.00  0.84107    
    54.00  0.80590    
    55.00  0.77253    
    56.00  0.74085    
    57.00  0.71078    
    58.00  0.68223    
    59.00  0.65512    
    60.00  0.62938    
    61.00  0.60494    
    62.00  0.58173    
    63.00  0.55968    
    64.00  0.53874    
    65.00  0.51885    
    66.00  0.49995    
    67.00  0.48199    
    68.00  0.46493    
    69.00  0.44872    
    70.00  0.43332    
    71.00  0.41868    
    72.00  0.40477    
    73.00  0.39156    
    74.00  0.37901    
    75.00  0.36708    
    76.00  0.35574    
    77.00  0.34498    
    78.00  0.33475    
    79.00  0.32504    
    80.00  0.31582    
    81.00  0.30707    
    82.00  0.29877    
    83.00  0.29089    
    84.00  0.28342    
    85.00  0.27635    
    86.00  0.26964    
    87.00  0.26330    
    88.00  0.25729    
    89.00  0.25162    
    90.00  0.24626    
    91.00  0.24120    
    92.00  0.23644    
    93.00  0.23195    
    94.00  0.22774    
    95.00  0.22378    
    96.00  0.22008    
    97.00  0.21662    
    98.00  0.21339    
    99.00  0.21039    
   100.00  0.20761    
   101.00  0.20505    
   102.00  0.20269    
   103.00  0.20053    
   104.00  0.19857    
   105.00  0.19679    
   106.00  0.19521    
   107.00  0.19381    
   108.00  0.19259    
   109.00  0.19154    
   110.00  0.19067    
   111.00  0.18997    
   112.00  0.18944    
   113.00  0.18908    
   114.00  0.18889    
   115.00  0.18886    
   116.00  0.18900    
   117.00  0.18931    
   118.00  0.18979    
   119.00  0.19044    
   120.00  0.19127    
   121.00  0.19227    
   122.00  0.19345    
   123.00  0.19482    
   124.00  0.19639    
   125.00  0.19815    
   126.00  0.20012    
   127.00  0.20230    
   128.00  0.20471    
   129.00  0.20736    
   130.00  0.21027    
   131.00  0.21344    
   132.00  0.21690    
   133.00  0.22066    
   134.00  0.22474    
   135.00  0.22918    
   136.00  0.23399    
   137.00  0.23922    
   138.00  0.24488    
   139.00  0.25102    
   140.00  0.25767    
   141.00  0.26489    
   142.00  0.27271    
   143.00  0.28118    
   144.00  0.29036    
   145.00  0.30028    
   146.00  0.31101    
   147.00  0.32257    
   148.00  0.33500    
   149.00  0.34830    
   150.00  0.36247    
   151.00  0.37746    
   152.00  0.39318    
   153.00  0.40947    
   154.00  0.42610    
   155.00  0.44279    
   156.00  0.45910    
   157.00  0.47455    
   158.00  0.48852    
   159.00  0.50034    
   160.00  0.50929    
   161.00  0.51464    
   162.00  0.51575    
   163.00  0.51217    
   164.00  0.50371    
   165.00  0.49059    
   166.00  0.47350    
   167.00  0.45361    
   168.00  0.43261    
   169.00  0.41255    
   170.00  0.39568    
   171.00  0.38414    
   172.00  0.37970    
   173.00  0.38336    
   174.00  0.39512    
   175.00  0.41376    
   176.00  0.43681    
   177.00  0.46085    
   178.00  0.48192    
   179.00  0.49635    
   180.00  0.50148    
 |--------|------------|
0.580000     micron = Wavelength
0.112524     = Extinction efficiency (Q)
0.103790     = Scattering efficiency (Qs)
0.873419E-02 = Absorption efficiency (Qa)
 27.1673     = Lidar ratio
0.336362E-02 micron^2 = <b> = Average surface area per particle
0.378488E-03 microns^2 = Extinction cross section (C)
0.349110E-03 microns^2 = Scattering cross section (Cs)
0.293785E-04 microns^2 = Absorption cross section (Ca)
 |----------------------------------------------------|
 | COMMENTAIRES:                                      |
 |----------------------------------------------------|
 |   -Cross section / <b> should = efficiency         |
 |    is independant of the normalisation of dN/dx    |
 |   -The integral of the phase fct / 4 pi over all   |
 |    directions (solid angle) = 1.                   |
 |   -The volume coefficient (k) is equal to C * N    |
 |      = cross section * Number density              |
 |      typical units: [um^2]*[particles/cm^3] =      |
 |      [10^-3 km-1]                                  |
 |      N = M/(d*4/3*pi*r^3) where d is the density   |
 |      of particle, M is the mass per unit volume    |
 |      and 4/3*pi*r^3 is the average volume  of a    |
 |      particle.                                     |
 |      typical units:  M -> [ug/m^3], d -> [g/cm^3]  |
 |                      r -> [um]                     |
 |      Lidar ratio= 4 pi Qe / phase_fct(180)*Qs      |
 |----------------------------------------------------|
