 |--------|------------|
 | ANGLE  |  PHASE FCT |
 |--------|------------|
     0.00   65.333    
     1.00   62.214    
     2.00   53.995    
     3.00   43.350    
     4.00   32.934    
     5.00   24.296    
     6.00   17.807    
     7.00   13.197    
     8.00   10.032    
     9.00   7.9084    
    10.00   6.4970    
    11.00   5.5546    
    12.00   4.9169    
    13.00   4.4762    
    14.00   4.1610    
    15.00   3.9254    
    16.00   3.7415    
    17.00   3.5919    
    18.00   3.4652    
    19.00   3.3543    
    20.00   3.2543    
    21.00   3.1621    
    22.00   3.0758    
    23.00   2.9943    
    24.00   2.9166    
    25.00   2.8417    
    26.00   2.7693    
    27.00   2.6992    
    28.00   2.6312    
    29.00   2.5649    
    30.00   2.5000    
    31.00   2.4367    
    32.00   2.3749    
    33.00   2.3143    
    34.00   2.2549    
    35.00   2.1966    
    36.00   2.1395    
    37.00   2.0836    
    38.00   2.0286    
    39.00   1.9747    
    40.00   1.9218    
    41.00   1.8700    
    42.00   1.8191    
    43.00   1.7693    
    44.00   1.7204    
    45.00   1.6726    
    46.00   1.6258    
    47.00   1.5799    
    48.00   1.5350    
    49.00   1.4911    
    50.00   1.4482    
    51.00   1.4063    
    52.00   1.3654    
    53.00   1.3254    
    54.00   1.2864    
    55.00   1.2484    
    56.00   1.2114    
    57.00   1.1753    
    58.00   1.1402    
    59.00   1.1060    
    60.00   1.0728    
    61.00   1.0405    
    62.00   1.0092    
    63.00  0.97877    
    64.00  0.94926    
    65.00  0.92065    
    66.00  0.89294    
    67.00  0.86610    
    68.00  0.84014    
    69.00  0.81504    
    70.00  0.79078    
    71.00  0.76735    
    72.00  0.74475    
    73.00  0.72295    
    74.00  0.70193    
    75.00  0.68169    
    76.00  0.66222    
    77.00  0.64348    
    78.00  0.62547    
    79.00  0.60817    
    80.00  0.59157    
    81.00  0.57564    
    82.00  0.56038    
    83.00  0.54576    
    84.00  0.53176    
    85.00  0.51838    
    86.00  0.50559    
    87.00  0.49336    
    88.00  0.48171    
    89.00  0.47059    
    90.00  0.46000    
    91.00  0.44993    
    92.00  0.44034    
    93.00  0.43124    
    94.00  0.42261    
    95.00  0.41442    
    96.00  0.40668    
    97.00  0.39936    
    98.00  0.39244    
    99.00  0.38593    
   100.00  0.37979    
   101.00  0.37403    
   102.00  0.36863    
   103.00  0.36358    
   104.00  0.35886    
   105.00  0.35447    
   106.00  0.35039    
   107.00  0.34662    
   108.00  0.34314    
   109.00  0.33994    
   110.00  0.33702    
   111.00  0.33436    
   112.00  0.33195    
   113.00  0.32980    
   114.00  0.32787    
   115.00  0.32618    
   116.00  0.32471    
   117.00  0.32346    
   118.00  0.32241    
   119.00  0.32156    
   120.00  0.32090    
   121.00  0.32043    
   122.00  0.32015    
   123.00  0.32004    
   124.00  0.32010    
   125.00  0.32034    
   126.00  0.32075    
   127.00  0.32132    
   128.00  0.32206    
   129.00  0.32296    
   130.00  0.32403    
   131.00  0.32527    
   132.00  0.32669    
   133.00  0.32829    
   134.00  0.33007    
   135.00  0.33206    
   136.00  0.33425    
   137.00  0.33666    
   138.00  0.33930    
   139.00  0.34219    
   140.00  0.34535    
   141.00  0.34880    
   142.00  0.35254    
   143.00  0.35659    
   144.00  0.36097    
   145.00  0.36568    
   146.00  0.37073    
   147.00  0.37611    
   148.00  0.38179    
   149.00  0.38776    
   150.00  0.39398    
   151.00  0.40038    
   152.00  0.40691    
   153.00  0.41351    
   154.00  0.42008    
   155.00  0.42656    
   156.00  0.43291    
   157.00  0.43911    
   158.00  0.44517    
   159.00  0.45117    
   160.00  0.45721    
   161.00  0.46339    
   162.00  0.46980    
   163.00  0.47646    
   164.00  0.48324    
   165.00  0.48976    
   166.00  0.49560    
   167.00  0.50041    
   168.00  0.50389    
   169.00  0.50596    
   170.00  0.50659    
   171.00  0.50531    
   172.00  0.50112    
   173.00  0.49330    
   174.00  0.48235    
   175.00  0.47048    
   176.00  0.46210    
   177.00  0.46275    
   178.00  0.47428    
   179.00  0.48978    
   180.00  0.49704    
 |--------|------------|
0.340000     micron = Wavelength
0.292371     = Extinction efficiency (Q)
0.274688     = Scattering efficiency (Qs)
0.176831E-01 = Absorption efficiency (Qa)
 26.9102     = Lidar ratio
0.627950E-02 micron^2 = <b> = Average surface area per particle
0.183595E-02 microns^2 = Extinction cross section (C)
0.172491E-02 microns^2 = Scattering cross section (Cs)
0.111041E-03 microns^2 = Absorption cross section (Ca)
 |----------------------------------------------------|
 | COMMENTAIRES:                                      |
 |----------------------------------------------------|
 |   -Cross section / <b> should = efficiency         |
 |    is independant of the normalisation of dN/dx    |
 |   -The integral of the phase fct / 4 pi over all   |
 |    directions (solid angle) = 1.                   |
 |   -The volume coefficient (k) is equal to C * N    |
 |      = cross section * Number density              |
 |      typical units: [um^2]*[particles/cm^3] =      |
 |      [10^-3 km-1]                                  |
 |      N = M/(d*4/3*pi*r^3) where d is the density   |
 |      of particle, M is the mass per unit volume    |
 |      and 4/3*pi*r^3 is the average volume  of a    |
 |      particle.                                     |
 |      typical units:  M -> [ug/m^3], d -> [g/cm^3]  |
 |                      r -> [um]                     |
 |      Lidar ratio= 4 pi Qe / phase_fct(180)*Qs      |
 |----------------------------------------------------|
