 |--------|------------|
 | ANGLE  |  PHASE FCT |
 |--------|------------|
     0.00   67.033    
     1.00   65.368    
     2.00   60.730    
     3.00   54.031    
     4.00   46.369    
     5.00   38.693    
     6.00   31.632    
     7.00   25.512    
     8.00   20.428    
     9.00   16.337    
    10.00   13.121    
    11.00   10.633    
    12.00   8.7313    
    13.00   7.2877    
    14.00   6.1951    
    15.00   5.3677    
    16.00   4.7383    
    17.00   4.2555    
    18.00   3.8807    
    19.00   3.5850    
    20.00   3.3471    
    21.00   3.1514    
    22.00   2.9867    
    23.00   2.8446    
    24.00   2.7195    
    25.00   2.6070    
    26.00   2.5042    
    27.00   2.4090    
    28.00   2.3199    
    29.00   2.2358    
    30.00   2.1559    
    31.00   2.0796    
    32.00   2.0067    
    33.00   1.9368    
    34.00   1.8696    
    35.00   1.8049    
    36.00   1.7427    
    37.00   1.6828    
    38.00   1.6250    
    39.00   1.5694    
    40.00   1.5158    
    41.00   1.4642    
    42.00   1.4145    
    43.00   1.3666    
    44.00   1.3204    
    45.00   1.2760    
    46.00   1.2332    
    47.00   1.1920    
    48.00   1.1523    
    49.00   1.1141    
    50.00   1.0774    
    51.00   1.0420    
    52.00   1.0079    
    53.00  0.97519    
    54.00  0.94369    
    55.00  0.91338    
    56.00  0.88424    
    57.00  0.85622    
    58.00  0.82927    
    59.00  0.80337    
    60.00  0.77848    
    61.00  0.75456    
    62.00  0.73158    
    63.00  0.70951    
    64.00  0.68832    
    65.00  0.66797    
    66.00  0.64844    
    67.00  0.62969    
    68.00  0.61172    
    69.00  0.59448    
    70.00  0.57796    
    71.00  0.56213    
    72.00  0.54696    
    73.00  0.53245    
    74.00  0.51855    
    75.00  0.50527    
    76.00  0.49257    
    77.00  0.48043    
    78.00  0.46884    
    79.00  0.45778    
    80.00  0.44723    
    81.00  0.43717    
    82.00  0.42760    
    83.00  0.41849    
    84.00  0.40983    
    85.00  0.40160    
    86.00  0.39379    
    87.00  0.38638    
    88.00  0.37937    
    89.00  0.37275    
    90.00  0.36648    
    91.00  0.36058    
    92.00  0.35502    
    93.00  0.34979    
    94.00  0.34489    
    95.00  0.34030    
    96.00  0.33602    
    97.00  0.33203    
    98.00  0.32833    
    99.00  0.32490    
   100.00  0.32175    
   101.00  0.31885    
   102.00  0.31621    
   103.00  0.31382    
   104.00  0.31168    
   105.00  0.30976    
   106.00  0.30808    
   107.00  0.30662    
   108.00  0.30538    
   109.00  0.30435    
   110.00  0.30353    
   111.00  0.30292    
   112.00  0.30250    
   113.00  0.30229    
   114.00  0.30227    
   115.00  0.30244    
   116.00  0.30281    
   117.00  0.30337    
   118.00  0.30411    
   119.00  0.30505    
   120.00  0.30618    
   121.00  0.30750    
   122.00  0.30902    
   123.00  0.31073    
   124.00  0.31265    
   125.00  0.31478    
   126.00  0.31712    
   127.00  0.31968    
   128.00  0.32248    
   129.00  0.32552    
   130.00  0.32881    
   131.00  0.33237    
   132.00  0.33621    
   133.00  0.34034    
   134.00  0.34479    
   135.00  0.34956    
   136.00  0.35468    
   137.00  0.36017    
   138.00  0.36604    
   139.00  0.37231    
   140.00  0.37900    
   141.00  0.38613    
   142.00  0.39369    
   143.00  0.40171    
   144.00  0.41019    
   145.00  0.41912    
   146.00  0.42851    
   147.00  0.43836    
   148.00  0.44866    
   149.00  0.45940    
   150.00  0.47058    
   151.00  0.48221    
   152.00  0.49430    
   153.00  0.50688    
   154.00  0.52001    
   155.00  0.53374    
   156.00  0.54814    
   157.00  0.56326    
   158.00  0.57912    
   159.00  0.59563    
   160.00  0.61256    
   161.00  0.62948    
   162.00  0.64567    
   163.00  0.66010    
   164.00  0.67143    
   165.00  0.67811    
   166.00  0.67859    
   167.00  0.67163    
   168.00  0.65667    
   169.00  0.63423    
   170.00  0.60606    
   171.00  0.57519    
   172.00  0.54561    
   173.00  0.52193    
   174.00  0.50872    
   175.00  0.50946    
   176.00  0.52519    
   177.00  0.55308    
   178.00  0.58567    
   179.00  0.61208    
   180.00  0.62228    
 |--------|------------|
0.550000     micron = Wavelength
0.145506     = Extinction efficiency (Q)
0.134608     = Scattering efficiency (Qs)
0.108978E-01 = Absorption efficiency (Qa)
 21.8290     = Lidar ratio
0.747900E-02 micron^2 = <b> = Average surface area per particle
0.108824E-02 microns^2 = Extinction cross section (C)
0.100673E-02 microns^2 = Scattering cross section (Cs)
0.815044E-04 microns^2 = Absorption cross section (Ca)
 |----------------------------------------------------|
 | COMMENTAIRES:                                      |
 |----------------------------------------------------|
 |   -Cross section / <b> should = efficiency         |
 |    is independant of the normalisation of dN/dx    |
 |   -The integral of the phase fct / 4 pi over all   |
 |    directions (solid angle) = 1.                   |
 |   -The volume coefficient (k) is equal to C * N    |
 |      = cross section * Number density              |
 |      typical units: [um^2]*[particles/cm^3] =      |
 |      [10^-3 km-1]                                  |
 |      N = M/(d*4/3*pi*r^3) where d is the density   |
 |      of particle, M is the mass per unit volume    |
 |      and 4/3*pi*r^3 is the average volume  of a    |
 |      particle.                                     |
 |      typical units:  M -> [ug/m^3], d -> [g/cm^3]  |
 |                      r -> [um]                     |
 |      Lidar ratio= 4 pi Qe / phase_fct(180)*Qs      |
 |----------------------------------------------------|
