 |--------|------------|
 | ANGLE  |  PHASE FCT |
 |--------|------------|
     0.00   38.384    
     1.00   38.014    
     2.00   36.940    
     3.00   35.255    
     4.00   33.097    
     5.00   30.618    
     6.00   27.967    
     7.00   25.275    
     8.00   22.645    
     9.00   20.152    
    10.00   17.845    
    11.00   15.751    
    12.00   13.878    
    13.00   12.225    
    14.00   10.779    
    15.00   9.5242    
    16.00   8.4415    
    17.00   7.5111    
    18.00   6.7136    
    19.00   6.0308    
    20.00   5.4459    
    21.00   4.9443    
    22.00   4.5130    
    23.00   4.1406    
    24.00   3.8177    
    25.00   3.5360    
    26.00   3.2887    
    27.00   3.0704    
    28.00   2.8760    
    29.00   2.7019    
    30.00   2.5447    
    31.00   2.4021    
    32.00   2.2717    
    33.00   2.1519    
    34.00   2.0412    
    35.00   1.9385    
    36.00   1.8429    
    37.00   1.7534    
    38.00   1.6696    
    39.00   1.5908    
    40.00   1.5167    
    41.00   1.4467    
    42.00   1.3806    
    43.00   1.3181    
    44.00   1.2589    
    45.00   1.2029    
    46.00   1.1498    
    47.00   1.0994    
    48.00   1.0517    
    49.00   1.0063    
    50.00  0.96331    
    51.00  0.92247    
    52.00  0.88369    
    53.00  0.84688    
    54.00  0.81192    
    55.00  0.77871    
    56.00  0.74718    
    57.00  0.71722    
    58.00  0.68876    
    59.00  0.66172    
    60.00  0.63603    
    61.00  0.61162    
    62.00  0.58842    
    63.00  0.56638    
    64.00  0.54543    
    65.00  0.52552    
    66.00  0.50660    
    67.00  0.48861    
    68.00  0.47151    
    69.00  0.45526    
    70.00  0.43981    
    71.00  0.42512    
    72.00  0.41116    
    73.00  0.39789    
    74.00  0.38528    
    75.00  0.37329    
    76.00  0.36190    
    77.00  0.35108    
    78.00  0.34079    
    79.00  0.33102    
    80.00  0.32175    
    81.00  0.31294    
    82.00  0.30458    
    83.00  0.29665    
    84.00  0.28913    
    85.00  0.28200    
    86.00  0.27525    
    87.00  0.26886    
    88.00  0.26281    
    89.00  0.25709    
    90.00  0.25169    
    91.00  0.24660    
    92.00  0.24180    
    93.00  0.23729    
    94.00  0.23304    
    95.00  0.22906    
    96.00  0.22533    
    97.00  0.22185    
    98.00  0.21861    
    99.00  0.21559    
   100.00  0.21280    
   101.00  0.21022    
   102.00  0.20786    
   103.00  0.20569    
   104.00  0.20373    
   105.00  0.20196    
   106.00  0.20037    
   107.00  0.19898    
   108.00  0.19777    
   109.00  0.19673    
   110.00  0.19587    
   111.00  0.19519    
   112.00  0.19467    
   113.00  0.19433    
   114.00  0.19416    
   115.00  0.19415    
   116.00  0.19432    
   117.00  0.19465    
   118.00  0.19516    
   119.00  0.19584    
   120.00  0.19669    
   121.00  0.19773    
   122.00  0.19895    
   123.00  0.20035    
   124.00  0.20195    
   125.00  0.20375    
   126.00  0.20575    
   127.00  0.20798    
   128.00  0.21043    
   129.00  0.21312    
   130.00  0.21607    
   131.00  0.21928    
   132.00  0.22278    
   133.00  0.22658    
   134.00  0.23071    
   135.00  0.23519    
   136.00  0.24005    
   137.00  0.24532    
   138.00  0.25103    
   139.00  0.25722    
   140.00  0.26393    
   141.00  0.27121    
   142.00  0.27909    
   143.00  0.28764    
   144.00  0.29690    
   145.00  0.30693    
   146.00  0.31777    
   147.00  0.32947    
   148.00  0.34207    
   149.00  0.35559    
   150.00  0.37003    
   151.00  0.38534    
   152.00  0.40144    
   153.00  0.41819    
   154.00  0.43538    
   155.00  0.45270    
   156.00  0.46974    
   157.00  0.48599    
   158.00  0.50084    
   159.00  0.51357    
   160.00  0.52342    
   161.00  0.52962    
   162.00  0.53147    
   163.00  0.52846    
   164.00  0.52033    
   165.00  0.50725    
   166.00  0.48988    
   167.00  0.46940    
   168.00  0.44753    
   169.00  0.42640    
   170.00  0.40835    
   171.00  0.39567    
   172.00  0.39028    
   173.00  0.39331    
   174.00  0.40483    
   175.00  0.42366    
   176.00  0.44729    
   177.00  0.47213    
   178.00  0.49403    
   179.00  0.50907    
   180.00  0.51443    
 |--------|------------|
0.569000     micron = Wavelength
0.112672     = Extinction efficiency (Q)
0.103762     = Scattering efficiency (Qs)
0.891060E-02 = Absorption efficiency (Qa)
 26.5254     = Lidar ratio
0.336363E-02 micron^2 = <b> = Average surface area per particle
0.378988E-03 microns^2 = Extinction cross section (C)
0.349016E-03 microns^2 = Scattering cross section (Cs)
0.299719E-04 microns^2 = Absorption cross section (Ca)
 |----------------------------------------------------|
 | COMMENTAIRES:                                      |
 |----------------------------------------------------|
 |   -Cross section / <b> should = efficiency         |
 |    is independant of the normalisation of dN/dx    |
 |   -The integral of the phase fct / 4 pi over all   |
 |    directions (solid angle) = 1.                   |
 |   -The volume coefficient (k) is equal to C * N    |
 |      = cross section * Number density              |
 |      typical units: [um^2]*[particles/cm^3] =      |
 |      [10^-3 km-1]                                  |
 |      N = M/(d*4/3*pi*r^3) where d is the density   |
 |      of particle, M is the mass per unit volume    |
 |      and 4/3*pi*r^3 is the average volume  of a    |
 |      particle.                                     |
 |      typical units:  M -> [ug/m^3], d -> [g/cm^3]  |
 |                      r -> [um]                     |
 |      Lidar ratio= 4 pi Qe / phase_fct(180)*Qs      |
 |----------------------------------------------------|
