 |--------|------------|
 | ANGLE  |  PHASE FCT |
 |--------|------------|
     0.00   145.04    
     1.00   138.74    
     2.00   121.93    
     3.00   99.632    
     4.00   77.008    
     5.00   57.380    
     6.00   41.907    
     7.00   30.396    
     8.00   22.150    
     9.00   16.397    
    10.00   12.445    
    11.00   9.7408    
    12.00   7.8836    
    13.00   6.5949    
    14.00   5.6837    
    15.00   5.0232    
    16.00   4.5305    
    17.00   4.1503    
    18.00   3.8459    
    19.00   3.5941    
    20.00   3.3801    
    21.00   3.1936    
    22.00   3.0272    
    23.00   2.8763    
    24.00   2.7381    
    25.00   2.6107    
    26.00   2.4923    
    27.00   2.3813    
    28.00   2.2771    
    29.00   2.1792    
    30.00   2.0869    
    31.00   1.9994    
    32.00   1.9165    
    33.00   1.8378    
    34.00   1.7632    
    35.00   1.6921    
    36.00   1.6243    
    37.00   1.5597    
    38.00   1.4982    
    39.00   1.4394    
    40.00   1.3832    
    41.00   1.3295    
    42.00   1.2782    
    43.00   1.2292    
    44.00   1.1822    
    45.00   1.1372    
    46.00   1.0942    
    47.00   1.0530    
    48.00   1.0135    
    49.00  0.97573    
    50.00  0.93956    
    51.00  0.90491    
    52.00  0.87168    
    53.00  0.83987    
    54.00  0.80941    
    55.00  0.78023    
    56.00  0.75225    
    57.00  0.72546    
    58.00  0.69982    
    59.00  0.67526    
    60.00  0.65173    
    61.00  0.62920    
    62.00  0.60765    
    63.00  0.58702    
    64.00  0.56726    
    65.00  0.54836    
    66.00  0.53030    
    67.00  0.51301    
    68.00  0.49649    
    69.00  0.48070    
    70.00  0.46563    
    71.00  0.45123    
    72.00  0.43748    
    73.00  0.42436    
    74.00  0.41187    
    75.00  0.39995    
    76.00  0.38859    
    77.00  0.37779    
    78.00  0.36750    
    79.00  0.35772    
    80.00  0.34843    
    81.00  0.33961    
    82.00  0.33123    
    83.00  0.32329    
    84.00  0.31576    
    85.00  0.30863    
    86.00  0.30188    
    87.00  0.29550    
    88.00  0.28946    
    89.00  0.28376    
    90.00  0.27838    
    91.00  0.27330    
    92.00  0.26852    
    93.00  0.26401    
    94.00  0.25978    
    95.00  0.25580    
    96.00  0.25206    
    97.00  0.24855    
    98.00  0.24528    
    99.00  0.24221    
   100.00  0.23935    
   101.00  0.23670    
   102.00  0.23423    
   103.00  0.23195    
   104.00  0.22985    
   105.00  0.22793    
   106.00  0.22618    
   107.00  0.22459    
   108.00  0.22317    
   109.00  0.22190    
   110.00  0.22080    
   111.00  0.21985    
   112.00  0.21905    
   113.00  0.21841    
   114.00  0.21793    
   115.00  0.21760    
   116.00  0.21742    
   117.00  0.21741    
   118.00  0.21756    
   119.00  0.21787    
   120.00  0.21835    
   121.00  0.21901    
   122.00  0.21986    
   123.00  0.22090    
   124.00  0.22214    
   125.00  0.22360    
   126.00  0.22529    
   127.00  0.22723    
   128.00  0.22944    
   129.00  0.23193    
   130.00  0.23474    
   131.00  0.23788    
   132.00  0.24139    
   133.00  0.24529    
   134.00  0.24963    
   135.00  0.25443    
   136.00  0.25974    
   137.00  0.26559    
   138.00  0.27201    
   139.00  0.27905    
   140.00  0.28671    
   141.00  0.29503    
   142.00  0.30401    
   143.00  0.31364    
   144.00  0.32389    
   145.00  0.33473    
   146.00  0.34608    
   147.00  0.35784    
   148.00  0.36989    
   149.00  0.38206    
   150.00  0.39420    
   151.00  0.40609    
   152.00  0.41755    
   153.00  0.42841    
   154.00  0.43852    
   155.00  0.44782    
   156.00  0.45639    
   157.00  0.46442    
   158.00  0.47223    
   159.00  0.48032    
   160.00  0.48932    
   161.00  0.49982    
   162.00  0.51235    
   163.00  0.52724    
   164.00  0.54430    
   165.00  0.56256    
   166.00  0.58031    
   167.00  0.59525    
   168.00  0.60476    
   169.00  0.60675    
   170.00  0.60046    
   171.00  0.58638    
   172.00  0.56588    
   173.00  0.54174    
   174.00  0.51875    
   175.00  0.50393    
   176.00  0.50606    
   177.00  0.53229    
   178.00  0.57932    
   179.00  0.62696    
   180.00  0.64729    
 |--------|------------|
0.670000     micron = Wavelength
0.202814     = Extinction efficiency (Q)
0.186547     = Scattering efficiency (Qs)
0.162677E-01 = Absorption efficiency (Qa)
 21.1067     = Lidar ratio
0.116610E-01 micron^2 = <b> = Average surface area per particle
0.236501E-02 microns^2 = Extinction cross section (C)
0.217531E-02 microns^2 = Scattering cross section (Cs)
0.189697E-03 microns^2 = Absorption cross section (Ca)
 |----------------------------------------------------|
 | COMMENTAIRES:                                      |
 |----------------------------------------------------|
 |   -Cross section / <b> should = efficiency         |
 |    is independant of the normalisation of dN/dx    |
 |   -The integral of the phase fct / 4 pi over all   |
 |    directions (solid angle) = 1.                   |
 |   -The volume coefficient (k) is equal to C * N    |
 |      = cross section * Number density              |
 |      typical units: [um^2]*[particles/cm^3] =      |
 |      [10^-3 km-1]                                  |
 |      N = M/(d*4/3*pi*r^3) where d is the density   |
 |      of particle, M is the mass per unit volume    |
 |      and 4/3*pi*r^3 is the average volume  of a    |
 |      particle.                                     |
 |      typical units:  M -> [ug/m^3], d -> [g/cm^3]  |
 |                      r -> [um]                     |
 |      Lidar ratio= 4 pi Qe / phase_fct(180)*Qs      |
 |----------------------------------------------------|
