 |--------|------------|
 | ANGLE  |  PHASE FCT |
 |--------|------------|
     0.00   50.400    
     1.00   49.706    
     2.00   47.716    
     3.00   44.669    
     4.00   40.891    
     5.00   36.723    
     6.00   32.464    
     7.00   28.343    
     8.00   24.516    
     9.00   21.071    
    10.00   18.045    
    11.00   15.437    
    12.00   13.222    
    13.00   11.361    
    14.00   9.8122    
    15.00   8.5294    
    16.00   7.4708    
    17.00   6.5982    
    18.00   5.8784    
    19.00   5.2827    
    20.00   4.7874    
    21.00   4.3727    
    22.00   4.0224    
    23.00   3.7237    
    24.00   3.4661    
    25.00   3.2414    
    26.00   3.0432    
    27.00   2.8663    
    28.00   2.7069    
    29.00   2.5618    
    30.00   2.4287    
    31.00   2.3057    
    32.00   2.1913    
    33.00   2.0844    
    34.00   1.9841    
    35.00   1.8897    
    36.00   1.8007    
    37.00   1.7166    
    38.00   1.6369    
    39.00   1.5615    
    40.00   1.4899    
    41.00   1.4220    
    42.00   1.3576    
    43.00   1.2965    
    44.00   1.2385    
    45.00   1.1834    
    46.00   1.1311    
    47.00   1.0814    
    48.00   1.0343    
    49.00  0.98956    
    50.00  0.94710    
    51.00  0.90680    
    52.00  0.86857    
    53.00  0.83227    
    54.00  0.79783    
    55.00  0.76514    
    56.00  0.73412    
    57.00  0.70468    
    58.00  0.67674    
    59.00  0.65022    
    60.00  0.62506    
    61.00  0.60117    
    62.00  0.57850    
    63.00  0.55697    
    64.00  0.53654    
    65.00  0.51715    
    66.00  0.49873    
    67.00  0.48125    
    68.00  0.46466    
    69.00  0.44890    
    70.00  0.43394    
    71.00  0.41974    
    72.00  0.40626    
    73.00  0.39346    
    74.00  0.38132    
    75.00  0.36979    
    76.00  0.35885    
    77.00  0.34848    
    78.00  0.33863    
    79.00  0.32930    
    80.00  0.32045    
    81.00  0.31207    
    82.00  0.30413    
    83.00  0.29661    
    84.00  0.28949    
    85.00  0.28276    
    86.00  0.27640    
    87.00  0.27039    
    88.00  0.26472    
    89.00  0.25938    
    90.00  0.25434    
    91.00  0.24961    
    92.00  0.24517    
    93.00  0.24100    
    94.00  0.23709    
    95.00  0.23345    
    96.00  0.23005    
    97.00  0.22690    
    98.00  0.22397    
    99.00  0.22127    
   100.00  0.21879    
   101.00  0.21652    
   102.00  0.21445    
   103.00  0.21259    
   104.00  0.21092    
   105.00  0.20944    
   106.00  0.20815    
   107.00  0.20704    
   108.00  0.20611    
   109.00  0.20536    
   110.00  0.20478    
   111.00  0.20438    
   112.00  0.20415    
   113.00  0.20409    
   114.00  0.20420    
   115.00  0.20448    
   116.00  0.20493    
   117.00  0.20556    
   118.00  0.20636    
   119.00  0.20734    
   120.00  0.20849    
   121.00  0.20983    
   122.00  0.21136    
   123.00  0.21308    
   124.00  0.21500    
   125.00  0.21712    
   126.00  0.21946    
   127.00  0.22202    
   128.00  0.22480    
   129.00  0.22783    
   130.00  0.23111    
   131.00  0.23465    
   132.00  0.23847    
   133.00  0.24258    
   134.00  0.24699    
   135.00  0.25172    
   136.00  0.25680    
   137.00  0.26222    
   138.00  0.26802    
   139.00  0.27421    
   140.00  0.28082    
   141.00  0.28787    
   142.00  0.29538    
   143.00  0.30337    
   144.00  0.31188    
   145.00  0.32093    
   146.00  0.33056    
   147.00  0.34080    
   148.00  0.35169    
   149.00  0.36327    
   150.00  0.37557    
   151.00  0.38864    
   152.00  0.40249    
   153.00  0.41712    
   154.00  0.43252    
   155.00  0.44860    
   156.00  0.46521    
   157.00  0.48210    
   158.00  0.49890    
   159.00  0.51505    
   160.00  0.52987    
   161.00  0.54244    
   162.00  0.55173    
   163.00  0.55661    
   164.00  0.55596    
   165.00  0.54887    
   166.00  0.53481    
   167.00  0.51391    
   168.00  0.48713    
   169.00  0.45639    
   170.00  0.42449    
   171.00  0.39493    
   172.00  0.37142    
   173.00  0.35727    
   174.00  0.35466    
   175.00  0.36395    
   176.00  0.38324    
   177.00  0.40828    
   178.00  0.43309    
   179.00  0.45132    
   180.00  0.45801    
 |--------|------------|
0.740000     micron = Wavelength
0.120069     = Extinction efficiency (Q)
0.111486     = Scattering efficiency (Qs)
0.858379E-02 = Absorption efficiency (Qa)
 29.5492     = Lidar ratio
0.747901E-02 micron^2 = <b> = Average surface area per particle
0.898001E-03 microns^2 = Extinction cross section (C)
0.833803E-03 microns^2 = Scattering cross section (Cs)
0.641983E-04 microns^2 = Absorption cross section (Ca)
 |----------------------------------------------------|
 | COMMENTAIRES:                                      |
 |----------------------------------------------------|
 |   -Cross section / <b> should = efficiency         |
 |    is independant of the normalisation of dN/dx    |
 |   -The integral of the phase fct / 4 pi over all   |
 |    directions (solid angle) = 1.                   |
 |   -The volume coefficient (k) is equal to C * N    |
 |      = cross section * Number density              |
 |      typical units: [um^2]*[particles/cm^3] =      |
 |      [10^-3 km-1]                                  |
 |      N = M/(d*4/3*pi*r^3) where d is the density   |
 |      of particle, M is the mass per unit volume    |
 |      and 4/3*pi*r^3 is the average volume  of a    |
 |      particle.                                     |
 |      typical units:  M -> [ug/m^3], d -> [g/cm^3]  |
 |                      r -> [um]                     |
 |      Lidar ratio= 4 pi Qe / phase_fct(180)*Qs      |
 |----------------------------------------------------|
