 |--------|------------|
 | ANGLE  |  PHASE FCT |
 |--------|------------|
     0.00   61.545    
     1.00   60.313    
     2.00   56.837    
     3.00   51.689    
     4.00   45.594    
     5.00   39.230    
     6.00   33.112    
     7.00   27.560    
     8.00   22.732    
     9.00   18.666    
    10.00   15.324    
    11.00   12.626    
    12.00   10.477    
    13.00   8.7826    
    14.00   7.4540    
    15.00   6.4155    
    16.00   5.6039    
    17.00   4.9676    
    18.00   4.4657    
    19.00   4.0660    
    20.00   3.7437    
    21.00   3.4798    
    22.00   3.2598    
    23.00   3.0730    
    24.00   2.9112    
    25.00   2.7685    
    26.00   2.6404    
    27.00   2.5237    
    28.00   2.4161    
    29.00   2.3158    
    30.00   2.2215    
    31.00   2.1324    
    32.00   2.0478    
    33.00   1.9672    
    34.00   1.8903    
    35.00   1.8166    
    36.00   1.7461    
    37.00   1.6786    
    38.00   1.6138    
    39.00   1.5517    
    40.00   1.4922    
    41.00   1.4351    
    42.00   1.3804    
    43.00   1.3279    
    44.00   1.2777    
    45.00   1.2296    
    46.00   1.1835    
    47.00   1.1393    
    48.00   1.0971    
    49.00   1.0566    
    50.00   1.0179    
    51.00  0.98091    
    52.00  0.94547    
    53.00  0.91158    
    54.00  0.87915    
    55.00  0.84814    
    56.00  0.81848    
    57.00  0.79012    
    58.00  0.76299    
    59.00  0.73707    
    60.00  0.71227    
    61.00  0.68858    
    62.00  0.66592    
    63.00  0.64427    
    64.00  0.62358    
    65.00  0.60381    
    66.00  0.58492    
    67.00  0.56688    
    68.00  0.54964    
    69.00  0.53319    
    70.00  0.51748    
    71.00  0.50248    
    72.00  0.48817    
    73.00  0.47452    
    74.00  0.46150    
    75.00  0.44909    
    76.00  0.43727    
    77.00  0.42600    
    78.00  0.41527    
    79.00  0.40506    
    80.00  0.39535    
    81.00  0.38612    
    82.00  0.37735    
    83.00  0.36902    
    84.00  0.36112    
    85.00  0.35364    
    86.00  0.34655    
    87.00  0.33984    
    88.00  0.33349    
    89.00  0.32751    
    90.00  0.32186    
    91.00  0.31655    
    92.00  0.31156    
    93.00  0.30687    
    94.00  0.30248    
    95.00  0.29839    
    96.00  0.29457    
    97.00  0.29102    
    98.00  0.28774    
    99.00  0.28471    
   100.00  0.28193    
   101.00  0.27939    
   102.00  0.27708    
   103.00  0.27500    
   104.00  0.27315    
   105.00  0.27151    
   106.00  0.27008    
   107.00  0.26886    
   108.00  0.26784    
   109.00  0.26702    
   110.00  0.26640    
   111.00  0.26597    
   112.00  0.26574    
   113.00  0.26569    
   114.00  0.26583    
   115.00  0.26615    
   116.00  0.26666    
   117.00  0.26736    
   118.00  0.26825    
   119.00  0.26932    
   120.00  0.27059    
   121.00  0.27205    
   122.00  0.27371    
   123.00  0.27557    
   124.00  0.27764    
   125.00  0.27992    
   126.00  0.28242    
   127.00  0.28516    
   128.00  0.28813    
   129.00  0.29136    
   130.00  0.29486    
   131.00  0.29862    
   132.00  0.30268    
   133.00  0.30705    
   134.00  0.31173    
   135.00  0.31676    
   136.00  0.32214    
   137.00  0.32790    
   138.00  0.33405    
   139.00  0.34060    
   140.00  0.34759    
   141.00  0.35502    
   142.00  0.36290    
   143.00  0.37126    
   144.00  0.38011    
   145.00  0.38946    
   146.00  0.39932    
   147.00  0.40971    
   148.00  0.42064    
   149.00  0.43215    
   150.00  0.44425    
   151.00  0.45698    
   152.00  0.47039    
   153.00  0.48452    
   154.00  0.49943    
   155.00  0.51516    
   156.00  0.53171    
   157.00  0.54904    
   158.00  0.56702    
   159.00  0.58534    
   160.00  0.60355    
   161.00  0.62090    
   162.00  0.63641    
   163.00  0.64881    
   164.00  0.65661    
   165.00  0.65831    
   166.00  0.65256    
   167.00  0.63855    
   168.00  0.61635    
   169.00  0.58717    
   170.00  0.55355    
   171.00  0.51921    
   172.00  0.48865    
   173.00  0.46657    
   174.00  0.45702    
   175.00  0.46225    
   176.00  0.48173    
   177.00  0.51127    
   178.00  0.54316    
   179.00  0.56784    
   180.00  0.57714    
 |--------|------------|
0.616000     micron = Wavelength
0.130756     = Extinction efficiency (Q)
0.120964     = Scattering efficiency (Qs)
0.979123E-02 = Absorption efficiency (Qa)
 23.5359     = Lidar ratio
0.747896E-02 micron^2 = <b> = Average surface area per particle
0.977916E-03 microns^2 = Extinction cross section (C)
0.904688E-03 microns^2 = Scattering cross section (Cs)
0.732281E-04 microns^2 = Absorption cross section (Ca)
 |----------------------------------------------------|
 | COMMENTAIRES:                                      |
 |----------------------------------------------------|
 |   -Cross section / <b> should = efficiency         |
 |    is independant of the normalisation of dN/dx    |
 |   -The integral of the phase fct / 4 pi over all   |
 |    directions (solid angle) = 1.                   |
 |   -The volume coefficient (k) is equal to C * N    |
 |      = cross section * Number density              |
 |      typical units: [um^2]*[particles/cm^3] =      |
 |      [10^-3 km-1]                                  |
 |      N = M/(d*4/3*pi*r^3) where d is the density   |
 |      of particle, M is the mass per unit volume    |
 |      and 4/3*pi*r^3 is the average volume  of a    |
 |      particle.                                     |
 |      typical units:  M -> [ug/m^3], d -> [g/cm^3]  |
 |                      r -> [um]                     |
 |      Lidar ratio= 4 pi Qe / phase_fct(180)*Qs      |
 |----------------------------------------------------|
