 |--------|------------|
 | ANGLE  |  PHASE FCT |
 |--------|------------|
     0.00   164.02    
     1.00   151.26    
     2.00   119.32    
     3.00   82.190    
     4.00   51.600    
     5.00   31.499    
     6.00   19.867    
     7.00   13.316    
     8.00   9.5840    
     9.00   7.4810    
    10.00   6.2793    
    11.00   5.5295    
    12.00   5.0215    
    13.00   4.6604    
    14.00   4.3842    
    15.00   4.1599    
    16.00   3.9743    
    17.00   3.8127    
    18.00   3.6638    
    19.00   3.5280    
    20.00   3.4073    
    21.00   3.2963    
    22.00   3.1893    
    23.00   3.0865    
    24.00   2.9902    
    25.00   2.8997    
    26.00   2.8123    
    27.00   2.7264    
    28.00   2.6433    
    29.00   2.5642    
    30.00   2.4880    
    31.00   2.4129    
    32.00   2.3393    
    33.00   2.2687    
    34.00   2.2008    
    35.00   2.1341    
    36.00   2.0684    
    37.00   2.0051    
    38.00   1.9443    
    39.00   1.8846    
    40.00   1.8258    
    41.00   1.7692    
    42.00   1.7146    
    43.00   1.6611    
    44.00   1.6086    
    45.00   1.5579    
    46.00   1.5089    
    47.00   1.4611    
    48.00   1.4142    
    49.00   1.3690    
    50.00   1.3253    
    51.00   1.2826    
    52.00   1.2410    
    53.00   1.2008    
    54.00   1.1619    
    55.00   1.1241    
    56.00   1.0872    
    57.00   1.0517    
    58.00   1.0174    
    59.00  0.98400    
    60.00  0.95161    
    61.00  0.92040    
    62.00  0.89027    
    63.00  0.86105    
    64.00  0.83276    
    65.00  0.80552    
    66.00  0.77928    
    67.00  0.75388    
    68.00  0.72936    
    69.00  0.70578    
    70.00  0.68311    
    71.00  0.66122    
    72.00  0.64013    
    73.00  0.61991    
    74.00  0.60050    
    75.00  0.58181    
    76.00  0.56385    
    77.00  0.54669    
    78.00  0.53024    
    79.00  0.51445    
    80.00  0.49934    
    81.00  0.48493    
    82.00  0.47116    
    83.00  0.45799    
    84.00  0.44544    
    85.00  0.43349    
    86.00  0.42211    
    87.00  0.41127    
    88.00  0.40096    
    89.00  0.39117    
    90.00  0.38187    
    91.00  0.37305    
    92.00  0.36468    
    93.00  0.35674    
    94.00  0.34923    
    95.00  0.34212    
    96.00  0.33538    
    97.00  0.32901    
    98.00  0.32301    
    99.00  0.31733    
   100.00  0.31197    
   101.00  0.30693    
   102.00  0.30220    
   103.00  0.29774    
   104.00  0.29355    
   105.00  0.28964    
   106.00  0.28598    
   107.00  0.28256    
   108.00  0.27939    
   109.00  0.27645    
   110.00  0.27373    
   111.00  0.27122    
   112.00  0.26893    
   113.00  0.26685    
   114.00  0.26495    
   115.00  0.26325    
   116.00  0.26174    
   117.00  0.26041    
   118.00  0.25926    
   119.00  0.25828    
   120.00  0.25747    
   121.00  0.25683    
   122.00  0.25635    
   123.00  0.25603    
   124.00  0.25588    
   125.00  0.25589    
   126.00  0.25607    
   127.00  0.25642    
   128.00  0.25694    
   129.00  0.25765    
   130.00  0.25855    
   131.00  0.25966    
   132.00  0.26099    
   133.00  0.26256    
   134.00  0.26439    
   135.00  0.26652    
   136.00  0.26896    
   137.00  0.27176    
   138.00  0.27494    
   139.00  0.27855    
   140.00  0.28262    
   141.00  0.28718    
   142.00  0.29227    
   143.00  0.29788    
   144.00  0.30402    
   145.00  0.31069    
   146.00  0.31784    
   147.00  0.32534    
   148.00  0.33308    
   149.00  0.34093    
   150.00  0.34872    
   151.00  0.35616    
   152.00  0.36300    
   153.00  0.36908    
   154.00  0.37410    
   155.00  0.37781    
   156.00  0.38028    
   157.00  0.38159    
   158.00  0.38177    
   159.00  0.38116    
   160.00  0.38043    
   161.00  0.37994    
   162.00  0.38008    
   163.00  0.38181    
   164.00  0.38583    
   165.00  0.39195    
   166.00  0.40014    
   167.00  0.41058    
   168.00  0.42227    
   169.00  0.43450    
   170.00  0.44896    
   171.00  0.46680    
   172.00  0.48509    
   173.00  0.49955    
   174.00  0.50601    
   175.00  0.49701    
   176.00  0.46954    
   177.00  0.44138    
   178.00  0.44056    
   179.00  0.46652    
   180.00  0.48300    
 |--------|------------|
0.436000     micron = Wavelength
0.346124     = Extinction efficiency (Q)
0.323536     = Scattering efficiency (Qs)
0.225883E-01 = Absorption efficiency (Qa)
 27.8340     = Lidar ratio
0.116433E-01 micron^2 = <b> = Average surface area per particle
0.403003E-02 microns^2 = Extinction cross section (C)
0.376703E-02 microns^2 = Scattering cross section (Cs)
0.263002E-03 microns^2 = Absorption cross section (Ca)
 |----------------------------------------------------|
 | COMMENTAIRES:                                      |
 |----------------------------------------------------|
 |   -Cross section / <b> should = efficiency         |
 |    is independant of the normalisation of dN/dx    |
 |   -The integral of the phase fct / 4 pi over all   |
 |    directions (solid angle) = 1.                   |
 |   -The volume coefficient (k) is equal to C * N    |
 |      = cross section * Number density              |
 |      typical units: [um^2]*[particles/cm^3] =      |
 |      [10^-3 km-1]                                  |
 |      N = M/(d*4/3*pi*r^3) where d is the density   |
 |      of particle, M is the mass per unit volume    |
 |      and 4/3*pi*r^3 is the average volume  of a    |
 |      particle.                                     |
 |      typical units:  M -> [ug/m^3], d -> [g/cm^3]  |
 |                      r -> [um]                     |
 |      Lidar ratio= 4 pi Qe / phase_fct(180)*Qs      |
 |----------------------------------------------------|
