 |--------|------------|
 | ANGLE  |  PHASE FCT |
 |--------|------------|
     0.00   70.326    
     1.00   68.174    
     2.00   62.268    
     3.00   53.981    
     4.00   44.878    
     5.00   36.185    
     6.00   28.590    
     7.00   22.340    
     8.00   17.408    
     9.00   13.633    
    10.00   10.803    
    11.00   8.7099    
    12.00   7.1742    
    13.00   6.0502    
    14.00   5.2253    
    15.00   4.6153    
    16.00   4.1586    
    17.00   3.8108    
    18.00   3.5403    
    19.00   3.3246    
    20.00   3.1478    
    21.00   2.9990    
    22.00   2.8702    
    23.00   2.7562    
    24.00   2.6532    
    25.00   2.5586    
    26.00   2.4705    
    27.00   2.3877    
    28.00   2.3093    
    29.00   2.2347    
    30.00   2.1633    
    31.00   2.0949    
    32.00   2.0291    
    33.00   1.9658    
    34.00   1.9047    
    35.00   1.8456    
    36.00   1.7886    
    37.00   1.7335    
    38.00   1.6802    
    39.00   1.6286    
    40.00   1.5787    
    41.00   1.5303    
    42.00   1.4835    
    43.00   1.4382    
    44.00   1.3943    
    45.00   1.3518    
    46.00   1.3107    
    47.00   1.2708    
    48.00   1.2322    
    49.00   1.1949    
    50.00   1.1587    
    51.00   1.1237    
    52.00   1.0898    
    53.00   1.0570    
    54.00   1.0253    
    55.00  0.99467    
    56.00  0.96501    
    57.00  0.93636    
    58.00  0.90865    
    59.00  0.88188    
    60.00  0.85601    
    61.00  0.83105    
    62.00  0.80694    
    63.00  0.78368    
    64.00  0.76124    
    65.00  0.73961    
    66.00  0.71875    
    67.00  0.69865    
    68.00  0.67930    
    69.00  0.66068    
    70.00  0.64275    
    71.00  0.62552    
    72.00  0.60895    
    73.00  0.59304    
    74.00  0.57777    
    75.00  0.56311    
    76.00  0.54906    
    77.00  0.53559    
    78.00  0.52270    
    79.00  0.51036    
    80.00  0.49856    
    81.00  0.48729    
    82.00  0.47652    
    83.00  0.46626    
    84.00  0.45647    
    85.00  0.44716    
    86.00  0.43830    
    87.00  0.42987    
    88.00  0.42188    
    89.00  0.41430    
    90.00  0.40712    
    91.00  0.40034    
    92.00  0.39393    
    93.00  0.38789    
    94.00  0.38221    
    95.00  0.37687    
    96.00  0.37186    
    97.00  0.36719    
    98.00  0.36282    
    99.00  0.35876    
   100.00  0.35500    
   101.00  0.35153    
   102.00  0.34834    
   103.00  0.34542    
   104.00  0.34276    
   105.00  0.34036    
   106.00  0.33821    
   107.00  0.33630    
   108.00  0.33463    
   109.00  0.33318    
   110.00  0.33196    
   111.00  0.33096    
   112.00  0.33017    
   113.00  0.32960    
   114.00  0.32922    
   115.00  0.32905    
   116.00  0.32907    
   117.00  0.32929    
   118.00  0.32970    
   119.00  0.33030    
   120.00  0.33109    
   121.00  0.33207    
   122.00  0.33324    
   123.00  0.33460    
   124.00  0.33615    
   125.00  0.33790    
   126.00  0.33986    
   127.00  0.34202    
   128.00  0.34439    
   129.00  0.34699    
   130.00  0.34983    
   131.00  0.35290    
   132.00  0.35624    
   133.00  0.35985    
   134.00  0.36375    
   135.00  0.36795    
   136.00  0.37247    
   137.00  0.37734    
   138.00  0.38256    
   139.00  0.38817    
   140.00  0.39416    
   141.00  0.40057    
   142.00  0.40740    
   143.00  0.41465    
   144.00  0.42233    
   145.00  0.43044    
   146.00  0.43895    
   147.00  0.44786    
   148.00  0.45714    
   149.00  0.46675    
   150.00  0.47666    
   151.00  0.48684    
   152.00  0.49726    
   153.00  0.50791    
   154.00  0.51879    
   155.00  0.52994    
   156.00  0.54142    
   157.00  0.55333    
   158.00  0.56576    
   159.00  0.57879    
   160.00  0.59243    
   161.00  0.60654    
   162.00  0.62078    
   163.00  0.63452    
   164.00  0.64680    
   165.00  0.65633    
   166.00  0.66167    
   167.00  0.66146    
   168.00  0.65477    
   169.00  0.64145    
   170.00  0.62234    
   171.00  0.59931    
   172.00  0.57511    
   173.00  0.55332    
   174.00  0.53819    
   175.00  0.53391    
   176.00  0.54335    
   177.00  0.56604    
   178.00  0.59605    
   179.00  0.62215    
   180.00  0.63255    
 |--------|------------|
0.490000     micron = Wavelength
0.169192     = Extinction efficiency (Q)
0.157309     = Scattering efficiency (Qs)
0.118839E-01 = Absorption efficiency (Qa)
 21.3669     = Lidar ratio
0.747898E-02 micron^2 = <b> = Average surface area per particle
0.126539E-02 microns^2 = Extinction cross section (C)
0.117651E-02 microns^2 = Scattering cross section (Cs)
0.888794E-04 microns^2 = Absorption cross section (Ca)
 |----------------------------------------------------|
 | COMMENTAIRES:                                      |
 |----------------------------------------------------|
 |   -Cross section / <b> should = efficiency         |
 |    is independant of the normalisation of dN/dx    |
 |   -The integral of the phase fct / 4 pi over all   |
 |    directions (solid angle) = 1.                   |
 |   -The volume coefficient (k) is equal to C * N    |
 |      = cross section * Number density              |
 |      typical units: [um^2]*[particles/cm^3] =      |
 |      [10^-3 km-1]                                  |
 |      N = M/(d*4/3*pi*r^3) where d is the density   |
 |      of particle, M is the mass per unit volume    |
 |      and 4/3*pi*r^3 is the average volume  of a    |
 |      particle.                                     |
 |      typical units:  M -> [ug/m^3], d -> [g/cm^3]  |
 |                      r -> [um]                     |
 |      Lidar ratio= 4 pi Qe / phase_fct(180)*Qs      |
 |----------------------------------------------------|
