 |--------|------------|
 | ANGLE  |  PHASE FCT |
 |--------|------------|
     0.00   45.313    
     1.00   44.783    
     2.00   43.249    
     3.00   40.874    
     4.00   37.883    
     5.00   34.519    
     6.00   31.005    
     7.00   27.527    
     8.00   24.217    
     9.00   21.164    
    10.00   18.415    
    11.00   15.987    
    12.00   13.874    
    13.00   12.057    
    14.00   10.508    
    15.00   9.1968    
    16.00   8.0916    
    17.00   7.1625    
    18.00   6.3821    
    19.00   5.7259    
    20.00   5.1727    
    21.00   4.7046    
    22.00   4.3060    
    23.00   3.9643    
    24.00   3.6693    
    25.00   3.4122    
    26.00   3.1863    
    27.00   2.9858    
    28.00   2.8064    
    29.00   2.6445    
    30.00   2.4972    
    31.00   2.3623    
    32.00   2.2379    
    33.00   2.1226    
    34.00   2.0153    
    35.00   1.9150    
    36.00   1.8210    
    37.00   1.7327    
    38.00   1.6494    
    39.00   1.5709    
    40.00   1.4967    
    41.00   1.4265    
    42.00   1.3602    
    43.00   1.2973    
    44.00   1.2378    
    45.00   1.1814    
    46.00   1.1279    
    47.00   1.0773    
    48.00   1.0292    
    49.00  0.98369    
    50.00  0.94052    
    51.00  0.89959    
    52.00  0.86078    
    53.00  0.82399    
    54.00  0.78910    
    55.00  0.75603    
    56.00  0.72466    
    57.00  0.69491    
    58.00  0.66670    
    59.00  0.63995    
    60.00  0.61457    
    61.00  0.59050    
    62.00  0.56767    
    63.00  0.54601    
    64.00  0.52547    
    65.00  0.50597    
    66.00  0.48747    
    67.00  0.46992    
    68.00  0.45326    
    69.00  0.43746    
    70.00  0.42246    
    71.00  0.40822    
    72.00  0.39471    
    73.00  0.38189    
    74.00  0.36973    
    75.00  0.35818    
    76.00  0.34723    
    77.00  0.33684    
    78.00  0.32698    
    79.00  0.31764    
    80.00  0.30878    
    81.00  0.30038    
    82.00  0.29242    
    83.00  0.28488    
    84.00  0.27774    
    85.00  0.27098    
    86.00  0.26459    
    87.00  0.25855    
    88.00  0.25285    
    89.00  0.24747    
    90.00  0.24240    
    91.00  0.23762    
    92.00  0.23313    
    93.00  0.22891    
    94.00  0.22495    
    95.00  0.22125    
    96.00  0.21779    
    97.00  0.21457    
    98.00  0.21158    
    99.00  0.20881    
   100.00  0.20625    
   101.00  0.20390    
   102.00  0.20175    
   103.00  0.19980    
   104.00  0.19804    
   105.00  0.19647    
   106.00  0.19508    
   107.00  0.19387    
   108.00  0.19283    
   109.00  0.19197    
   110.00  0.19128    
   111.00  0.19077    
   112.00  0.19042    
   113.00  0.19023    
   114.00  0.19021    
   115.00  0.19036    
   116.00  0.19068    
   117.00  0.19116    
   118.00  0.19181    
   119.00  0.19264    
   120.00  0.19364    
   121.00  0.19482    
   122.00  0.19618    
   123.00  0.19772    
   124.00  0.19946    
   125.00  0.20140    
   126.00  0.20355    
   127.00  0.20591    
   128.00  0.20849    
   129.00  0.21131    
   130.00  0.21438    
   131.00  0.21770    
   132.00  0.22130    
   133.00  0.22518    
   134.00  0.22937    
   135.00  0.23388    
   136.00  0.23873    
   137.00  0.24395    
   138.00  0.24956    
   139.00  0.25559    
   140.00  0.26205    
   141.00  0.26899    
   142.00  0.27644    
   143.00  0.28443    
   144.00  0.29301    
   145.00  0.30220    
   146.00  0.31207    
   147.00  0.32265    
   148.00  0.33398    
   149.00  0.34612    
   150.00  0.35908    
   151.00  0.37288    
   152.00  0.38753    
   153.00  0.40296    
   154.00  0.41909    
   155.00  0.43575    
   156.00  0.45267    
   157.00  0.46950    
   158.00  0.48571    
   159.00  0.50068    
   160.00  0.51361    
   161.00  0.52359    
   162.00  0.52967    
   163.00  0.53088    
   164.00  0.52641    
   165.00  0.51578    
   166.00  0.49895    
   167.00  0.47655    
   168.00  0.44991    
   169.00  0.42115    
   170.00  0.39298    
   171.00  0.36846    
   172.00  0.35060    
   173.00  0.34178    
   174.00  0.34325    
   175.00  0.35468    
   176.00  0.37390    
   177.00  0.39700    
   178.00  0.41897    
   179.00  0.43472    
   180.00  0.44045    
 |--------|------------|
0.730000     micron = Wavelength
0.118427     = Extinction efficiency (Q)
0.109588     = Scattering efficiency (Qs)
0.883933E-02 = Absorption efficiency (Qa)
 30.8321     = Lidar ratio
0.628000E-02 micron^2 = <b> = Average surface area per particle
0.743724E-03 microns^2 = Extinction cross section (C)
0.688213E-03 microns^2 = Scattering cross section (Cs)
0.555110E-04 microns^2 = Absorption cross section (Ca)
 |----------------------------------------------------|
 | COMMENTAIRES:                                      |
 |----------------------------------------------------|
 |   -Cross section / <b> should = efficiency         |
 |    is independant of the normalisation of dN/dx    |
 |   -The integral of the phase fct / 4 pi over all   |
 |    directions (solid angle) = 1.                   |
 |   -The volume coefficient (k) is equal to C * N    |
 |      = cross section * Number density              |
 |      typical units: [um^2]*[particles/cm^3] =      |
 |      [10^-3 km-1]                                  |
 |      N = M/(d*4/3*pi*r^3) where d is the density   |
 |      of particle, M is the mass per unit volume    |
 |      and 4/3*pi*r^3 is the average volume  of a    |
 |      particle.                                     |
 |      typical units:  M -> [ug/m^3], d -> [g/cm^3]  |
 |                      r -> [um]                     |
 |      Lidar ratio= 4 pi Qe / phase_fct(180)*Qs      |
 |----------------------------------------------------|
