 |--------|------------|
 | ANGLE  |  PHASE FCT |
 |--------|------------|
     0.00   27.400    
     1.00   27.252    
     2.00   26.814    
     3.00   26.111    
     4.00   25.176    
     5.00   24.054    
     6.00   22.791    
     7.00   21.433    
     8.00   20.023    
     9.00   18.599    
    10.00   17.192    
    11.00   15.827    
    12.00   14.522    
    13.00   13.290    
    14.00   12.139    
    15.00   11.072    
    16.00   10.092    
    17.00   9.1951    
    18.00   8.3793    
    19.00   7.6399    
    20.00   6.9718    
    21.00   6.3695    
    22.00   5.8276    
    23.00   5.3402    
    24.00   4.9023    
    25.00   4.5086    
    26.00   4.1546    
    27.00   3.8360    
    28.00   3.5489    
    29.00   3.2898    
    30.00   3.0555    
    31.00   2.8433    
    32.00   2.6506    
    33.00   2.4753    
    34.00   2.3154    
    35.00   2.1693    
    36.00   2.0354    
    37.00   1.9125    
    38.00   1.7993    
    39.00   1.6950    
    40.00   1.5986    
    41.00   1.5093    
    42.00   1.4265    
    43.00   1.3495    
    44.00   1.2779    
    45.00   1.2111    
    46.00   1.1487    
    47.00   1.0904    
    48.00   1.0358    
    49.00  0.98470    
    50.00  0.93673    
    51.00  0.89169    
    52.00  0.84936    
    53.00  0.80955    
    54.00  0.77207    
    55.00  0.73678    
    56.00  0.70351    
    57.00  0.67214    
    58.00  0.64254    
    59.00  0.61459    
    60.00  0.58820    
    61.00  0.56326    
    62.00  0.53968    
    63.00  0.51738    
    64.00  0.49629    
    65.00  0.47632    
    66.00  0.45743    
    67.00  0.43953    
    68.00  0.42259    
    69.00  0.40653    
    70.00  0.39132    
    71.00  0.37690    
    72.00  0.36323    
    73.00  0.35028    
    74.00  0.33799    
    75.00  0.32634    
    76.00  0.31529    
    77.00  0.30481    
    78.00  0.29487    
    79.00  0.28545    
    80.00  0.27651    
    81.00  0.26803    
    82.00  0.25999    
    83.00  0.25236    
    84.00  0.24514    
    85.00  0.23829    
    86.00  0.23180    
    87.00  0.22566    
    88.00  0.21984    
    89.00  0.21434    
    90.00  0.20913    
    91.00  0.20421    
    92.00  0.19957    
    93.00  0.19518    
    94.00  0.19105    
    95.00  0.18716    
    96.00  0.18350    
    97.00  0.18007    
    98.00  0.17685    
    99.00  0.17384    
   100.00  0.17103    
   101.00  0.16842    
   102.00  0.16599    
   103.00  0.16374    
   104.00  0.16168    
   105.00  0.15978    
   106.00  0.15806    
   107.00  0.15650    
   108.00  0.15510    
   109.00  0.15386    
   110.00  0.15278    
   111.00  0.15186    
   112.00  0.15109    
   113.00  0.15047    
   114.00  0.15001    
   115.00  0.14970    
   116.00  0.14954    
   117.00  0.14954    
   118.00  0.14969    
   119.00  0.15001    
   120.00  0.15048    
   121.00  0.15113    
   122.00  0.15195    
   123.00  0.15294    
   124.00  0.15412    
   125.00  0.15549    
   126.00  0.15706    
   127.00  0.15884    
   128.00  0.16084    
   129.00  0.16307    
   130.00  0.16555    
   131.00  0.16829    
   132.00  0.17130    
   133.00  0.17461    
   134.00  0.17822    
   135.00  0.18217    
   136.00  0.18646    
   137.00  0.19113    
   138.00  0.19619    
   139.00  0.20166    
   140.00  0.20757    
   141.00  0.21392    
   142.00  0.22074    
   143.00  0.22803    
   144.00  0.23580    
   145.00  0.24404    
   146.00  0.25273    
   147.00  0.26185    
   148.00  0.27132    
   149.00  0.28110    
   150.00  0.29106    
   151.00  0.30108    
   152.00  0.31101    
   153.00  0.32064    
   154.00  0.32974    
   155.00  0.33806    
   156.00  0.34531    
   157.00  0.35121    
   158.00  0.35547    
   159.00  0.35784    
   160.00  0.35813    
   161.00  0.35625    
   162.00  0.35222    
   163.00  0.34625    
   164.00  0.33871    
   165.00  0.33018    
   166.00  0.32142    
   167.00  0.31332    
   168.00  0.30687    
   169.00  0.30306    
   170.00  0.30271    
   171.00  0.30644    
   172.00  0.31447    
   173.00  0.32657    
   174.00  0.34203    
   175.00  0.35962    
   176.00  0.37774    
   177.00  0.39453    
   178.00  0.40816    
   179.00  0.41705    
   180.00  0.42014    
 |--------|------------|
0.710000     micron = Wavelength
0.112343     = Extinction efficiency (Q)
0.104052     = Scattering efficiency (Qs)
0.829147E-02 = Absorption efficiency (Qa)
 32.2931     = Lidar ratio
0.313422E-02 micron^2 = <b> = Average surface area per particle
0.352109E-03 microns^2 = Extinction cross section (C)
0.326121E-03 microns^2 = Scattering cross section (Cs)
0.259873E-04 microns^2 = Absorption cross section (Ca)
 |----------------------------------------------------|
 | COMMENTAIRES:                                      |
 |----------------------------------------------------|
 |   -Cross section / <b> should = efficiency         |
 |    is independant of the normalisation of dN/dx    |
 |   -The integral of the phase fct / 4 pi over all   |
 |    directions (solid angle) = 1.                   |
 |   -The volume coefficient (k) is equal to C * N    |
 |      = cross section * Number density              |
 |      typical units: [um^2]*[particles/cm^3] =      |
 |      [10^-3 km-1]                                  |
 |      N = M/(d*4/3*pi*r^3) where d is the density   |
 |      of particle, M is the mass per unit volume    |
 |      and 4/3*pi*r^3 is the average volume  of a    |
 |      particle.                                     |
 |      typical units:  M -> [ug/m^3], d -> [g/cm^3]  |
 |                      r -> [um]                     |
 |      Lidar ratio= 4 pi Qe / phase_fct(180)*Qs      |
 |----------------------------------------------------|
