 |--------|------------|
 | ANGLE  |  PHASE FCT |
 |--------|------------|
     0.00   124.22    
     1.00   115.43    
     2.00   93.198    
     3.00   66.741    
     4.00   44.072    
     5.00   28.310    
     6.00   18.568    
     7.00   12.770    
     8.00   9.3399    
     9.00   7.3373    
    10.00   6.1566    
    11.00   5.4171    
    12.00   4.9235    
    13.00   4.5783    
    14.00   4.3203    
    15.00   4.1145    
    16.00   3.9435    
    17.00   3.7945    
    18.00   3.6593    
    19.00   3.5368    
    20.00   3.4257    
    21.00   3.3219    
    22.00   3.2220    
    23.00   3.1266    
    24.00   3.0367    
    25.00   2.9510    
    26.00   2.8675    
    27.00   2.7859    
    28.00   2.7071    
    29.00   2.6313    
    30.00   2.5575    
    31.00   2.4848    
    32.00   2.4139    
    33.00   2.3453    
    34.00   2.2785    
    35.00   2.2128    
    36.00   2.1484    
    37.00   2.0860    
    38.00   2.0253    
    39.00   1.9656    
    40.00   1.9071    
    41.00   1.8504    
    42.00   1.7952    
    43.00   1.7410    
    44.00   1.6880    
    45.00   1.6366    
    46.00   1.5866    
    47.00   1.5376    
    48.00   1.4898    
    49.00   1.4434    
    50.00   1.3984    
    51.00   1.3543    
    52.00   1.3114    
    53.00   1.2698    
    54.00   1.2295    
    55.00   1.1901    
    56.00   1.1519    
    57.00   1.1148    
    58.00   1.0789    
    59.00   1.0440    
    60.00   1.0102    
    61.00  0.97745    
    62.00  0.94578    
    63.00  0.91506    
    64.00  0.88534    
    65.00  0.85665    
    66.00  0.82893    
    67.00  0.80213    
    68.00  0.77625    
    69.00  0.75132    
    70.00  0.72729    
    71.00  0.70411    
    72.00  0.68178    
    73.00  0.66032    
    74.00  0.63969    
    75.00  0.61983    
    76.00  0.60076    
    77.00  0.58248    
    78.00  0.56496    
    79.00  0.54813    
    80.00  0.53202    
    81.00  0.51663    
    82.00  0.50191    
    83.00  0.48782    
    84.00  0.47437    
    85.00  0.46156    
    86.00  0.44933    
    87.00  0.43766    
    88.00  0.42657    
    89.00  0.41601    
    90.00  0.40596    
    91.00  0.39641    
    92.00  0.38735    
    93.00  0.37874    
    94.00  0.37057    
    95.00  0.36284    
    96.00  0.35551    
    97.00  0.34858    
    98.00  0.34203    
    99.00  0.33584    
   100.00  0.33000    
   101.00  0.32450    
   102.00  0.31933    
   103.00  0.31446    
   104.00  0.30990    
   105.00  0.30563    
   106.00  0.30165    
   107.00  0.29793    
   108.00  0.29447    
   109.00  0.29127    
   110.00  0.28832    
   111.00  0.28559    
   112.00  0.28310    
   113.00  0.28083    
   114.00  0.27878    
   115.00  0.27693    
   116.00  0.27528    
   117.00  0.27382    
   118.00  0.27256    
   119.00  0.27148    
   120.00  0.27058    
   121.00  0.26985    
   122.00  0.26930    
   123.00  0.26892    
   124.00  0.26870    
   125.00  0.26865    
   126.00  0.26876    
   127.00  0.26905    
   128.00  0.26950    
   129.00  0.27014    
   130.00  0.27095    
   131.00  0.27196    
   132.00  0.27316    
   133.00  0.27459    
   134.00  0.27625    
   135.00  0.27815    
   136.00  0.28033    
   137.00  0.28281    
   138.00  0.28561    
   139.00  0.28877    
   140.00  0.29230    
   141.00  0.29624    
   142.00  0.30061    
   143.00  0.30543    
   144.00  0.31069    
   145.00  0.31641    
   146.00  0.32255    
   147.00  0.32903    
   148.00  0.33579    
   149.00  0.34275    
   150.00  0.34977    
   151.00  0.35663    
   152.00  0.36317    
   153.00  0.36922    
   154.00  0.37455    
   155.00  0.37894    
   156.00  0.38238    
   157.00  0.38488    
   158.00  0.38643    
   159.00  0.38727    
   160.00  0.38782    
   161.00  0.38845    
   162.00  0.38956    
   163.00  0.39189    
   164.00  0.39597    
   165.00  0.40176    
   166.00  0.40918    
   167.00  0.41816    
   168.00  0.42799    
   169.00  0.43828    
   170.00  0.44998    
   171.00  0.46328    
   172.00  0.47563    
   173.00  0.48342    
   174.00  0.48345    
   175.00  0.47198    
   176.00  0.45014    
   177.00  0.43220    
   178.00  0.43596    
   179.00  0.45773    
   180.00  0.47051    
 |--------|------------|
0.390000     micron = Wavelength
0.343433     = Extinction efficiency (Q)
0.322855     = Scattering efficiency (Qs)
0.205782E-01 = Absorption efficiency (Qa)
 28.4100     = Lidar ratio
0.956240E-02 micron^2 = <b> = Average surface area per particle
0.328405E-02 microns^2 = Extinction cross section (C)
0.308727E-02 microns^2 = Scattering cross section (Cs)
0.196777E-03 microns^2 = Absorption cross section (Ca)
 |----------------------------------------------------|
 | COMMENTAIRES:                                      |
 |----------------------------------------------------|
 |   -Cross section / <b> should = efficiency         |
 |    is independant of the normalisation of dN/dx    |
 |   -The integral of the phase fct / 4 pi over all   |
 |    directions (solid angle) = 1.                   |
 |   -The volume coefficient (k) is equal to C * N    |
 |      = cross section * Number density              |
 |      typical units: [um^2]*[particles/cm^3] =      |
 |      [10^-3 km-1]                                  |
 |      N = M/(d*4/3*pi*r^3) where d is the density   |
 |      of particle, M is the mass per unit volume    |
 |      and 4/3*pi*r^3 is the average volume  of a    |
 |      particle.                                     |
 |      typical units:  M -> [ug/m^3], d -> [g/cm^3]  |
 |                      r -> [um]                     |
 |      Lidar ratio= 4 pi Qe / phase_fct(180)*Qs      |
 |----------------------------------------------------|
