 |--------|------------|
 | ANGLE  |  PHASE FCT |
 |--------|------------|
     0.00   60.281    
     1.00   59.127    
     2.00   55.861    
     3.00   51.003    
     4.00   45.215    
     5.00   39.127    
     6.00   33.226    
     7.00   27.825    
     8.00   23.089    
     9.00   19.064    
    10.00   15.728    
    11.00   13.013    
    12.00   10.833    
    13.00   9.1002    
    14.00   7.7318    
    15.00   6.6549    
    16.00   5.8080    
    17.00   5.1404    
    18.00   4.6113    
    19.00   4.1885    
    20.00   3.8467    
    21.00   3.5666    
    22.00   3.3331    
    23.00   3.1350    
    24.00   2.9639    
    25.00   2.8133    
    26.00   2.6785    
    27.00   2.5562    
    28.00   2.4437    
    29.00   2.3392    
    30.00   2.2412    
    31.00   2.1489    
    32.00   2.0614    
    33.00   1.9782    
    34.00   1.8988    
    35.00   1.8231    
    36.00   1.7506    
    37.00   1.6812    
    38.00   1.6148    
    39.00   1.5512    
    40.00   1.4903    
    41.00   1.4320    
    42.00   1.3762    
    43.00   1.3227    
    44.00   1.2715    
    45.00   1.2226    
    46.00   1.1757    
    47.00   1.1309    
    48.00   1.0881    
    49.00   1.0471    
    50.00   1.0079    
    51.00  0.97048    
    52.00  0.93470    
    53.00  0.90050    
    54.00  0.86783    
    55.00  0.83661    
    56.00  0.80679    
    57.00  0.77830    
    58.00  0.75109    
    59.00  0.72510    
    60.00  0.70028    
    61.00  0.67657    
    62.00  0.65393    
    63.00  0.63231    
    64.00  0.61167    
    65.00  0.59196    
    66.00  0.57316    
    67.00  0.55520    
    68.00  0.53807    
    69.00  0.52173    
    70.00  0.50613    
    71.00  0.49126    
    72.00  0.47708    
    73.00  0.46356    
    74.00  0.45067    
    75.00  0.43840    
    76.00  0.42671    
    77.00  0.41557    
    78.00  0.40498    
    79.00  0.39491    
    80.00  0.38533    
    81.00  0.37622    
    82.00  0.36759    
    83.00  0.35938    
    84.00  0.35160    
    85.00  0.34423    
    86.00  0.33725    
    87.00  0.33065    
    88.00  0.32441    
    89.00  0.31853    
    90.00  0.31298    
    91.00  0.30776    
    92.00  0.30285    
    93.00  0.29825    
    94.00  0.29394    
    95.00  0.28992    
    96.00  0.28617    
    97.00  0.28269    
    98.00  0.27947    
    99.00  0.27650    
   100.00  0.27377    
   101.00  0.27128    
   102.00  0.26902    
   103.00  0.26698    
   104.00  0.26516    
   105.00  0.26356    
   106.00  0.26216    
   107.00  0.26097    
   108.00  0.25998    
   109.00  0.25919    
   110.00  0.25859    
   111.00  0.25817    
   112.00  0.25795    
   113.00  0.25792    
   114.00  0.25807    
   115.00  0.25841    
   116.00  0.25893    
   117.00  0.25964    
   118.00  0.26053    
   119.00  0.26161    
   120.00  0.26289    
   121.00  0.26435    
   122.00  0.26601    
   123.00  0.26788    
   124.00  0.26995    
   125.00  0.27224    
   126.00  0.27475    
   127.00  0.27749    
   128.00  0.28047    
   129.00  0.28371    
   130.00  0.28721    
   131.00  0.29098    
   132.00  0.29505    
   133.00  0.29942    
   134.00  0.30411    
   135.00  0.30914    
   136.00  0.31453    
   137.00  0.32029    
   138.00  0.32644    
   139.00  0.33300    
   140.00  0.33999    
   141.00  0.34742    
   142.00  0.35531    
   143.00  0.36367    
   144.00  0.37253    
   145.00  0.38189    
   146.00  0.39178    
   147.00  0.40221    
   148.00  0.41321    
   149.00  0.42479    
   150.00  0.43700    
   151.00  0.44987    
   152.00  0.46345    
   153.00  0.47778    
   154.00  0.49292    
   155.00  0.50889    
   156.00  0.52569    
   157.00  0.54324    
   158.00  0.56138    
   159.00  0.57977    
   160.00  0.59789    
   161.00  0.61499    
   162.00  0.63001    
   163.00  0.64168    
   164.00  0.64853    
   165.00  0.64908    
   166.00  0.64209    
   167.00  0.62684    
   168.00  0.60353    
   169.00  0.57350    
   170.00  0.53941    
   171.00  0.50502    
   172.00  0.47484    
   173.00  0.45348    
   174.00  0.44479    
   175.00  0.45076    
   176.00  0.47059    
   177.00  0.49996    
   178.00  0.53126    
   179.00  0.55530    
   180.00  0.56433    
 |--------|------------|
0.630000     micron = Wavelength
0.128692     = Extinction efficiency (Q)
0.119041     = Scattering efficiency (Qs)
0.965090E-02 = Absorption efficiency (Qa)
 24.0729     = Lidar ratio
0.747896E-02 micron^2 = <b> = Average surface area per particle
0.962481E-03 microns^2 = Extinction cross section (C)
0.890302E-03 microns^2 = Scattering cross section (Cs)
0.721787E-04 microns^2 = Absorption cross section (Ca)
 |----------------------------------------------------|
 | COMMENTAIRES:                                      |
 |----------------------------------------------------|
 |   -Cross section / <b> should = efficiency         |
 |    is independant of the normalisation of dN/dx    |
 |   -The integral of the phase fct / 4 pi over all   |
 |    directions (solid angle) = 1.                   |
 |   -The volume coefficient (k) is equal to C * N    |
 |      = cross section * Number density              |
 |      typical units: [um^2]*[particles/cm^3] =      |
 |      [10^-3 km-1]                                  |
 |      N = M/(d*4/3*pi*r^3) where d is the density   |
 |      of particle, M is the mass per unit volume    |
 |      and 4/3*pi*r^3 is the average volume  of a    |
 |      particle.                                     |
 |      typical units:  M -> [ug/m^3], d -> [g/cm^3]  |
 |                      r -> [um]                     |
 |      Lidar ratio= 4 pi Qe / phase_fct(180)*Qs      |
 |----------------------------------------------------|
