 |--------|------------|
 | ANGLE  |  PHASE FCT |
 |--------|------------|
     0.00   164.14    
     1.00   154.76    
     2.00   130.42    
     3.00   99.862    
     4.00   71.348    
     5.00   49.092    
     6.00   33.440    
     7.00   22.987    
     8.00   16.197    
     9.00   11.876    
    10.00   9.1422    
    11.00   7.3856    
    12.00   6.2273    
    13.00   5.4394    
    14.00   4.8791    
    15.00   4.4612    
    16.00   4.1369    
    17.00   3.8737    
    18.00   3.6502    
    19.00   3.4557    
    20.00   3.2846    
    21.00   3.1310    
    22.00   2.9900    
    23.00   2.8592    
    24.00   2.7381    
    25.00   2.6256    
    26.00   2.5202    
    27.00   2.4204    
    28.00   2.3260    
    29.00   2.2370    
    30.00   2.1529    
    31.00   2.0726    
    32.00   1.9958    
    33.00   1.9228    
    34.00   1.8535    
    35.00   1.7870    
    36.00   1.7231    
    37.00   1.6620    
    38.00   1.6037    
    39.00   1.5477    
    40.00   1.4937    
    41.00   1.4419    
    42.00   1.3923    
    43.00   1.3446    
    44.00   1.2985    
    45.00   1.2542    
    46.00   1.2117    
    47.00   1.1707    
    48.00   1.1311    
    49.00   1.0931    
    50.00   1.0565    
    51.00   1.0212    
    52.00  0.98712    
    53.00  0.95433    
    54.00  0.92280    
    55.00  0.89238    
    56.00  0.86301    
    57.00  0.83475    
    58.00  0.80758    
    59.00  0.78138    
    60.00  0.75610    
    61.00  0.73179    
    62.00  0.70843    
    63.00  0.68591    
    64.00  0.66422    
    65.00  0.64338    
    66.00  0.62336    
    67.00  0.60410    
    68.00  0.58558    
    69.00  0.56781    
    70.00  0.55076    
    71.00  0.53439    
    72.00  0.51868    
    73.00  0.50364    
    74.00  0.48924    
    75.00  0.47545    
    76.00  0.46224    
    77.00  0.44964    
    78.00  0.43760    
    79.00  0.42610    
    80.00  0.41513    
    81.00  0.40469    
    82.00  0.39475    
    83.00  0.38529    
    84.00  0.37630    
    85.00  0.36776    
    86.00  0.35966    
    87.00  0.35198    
    88.00  0.34470    
    89.00  0.33781    
    90.00  0.33129    
    91.00  0.32513    
    92.00  0.31932    
    93.00  0.31383    
    94.00  0.30866    
    95.00  0.30379    
    96.00  0.29921    
    97.00  0.29490    
    98.00  0.29086    
    99.00  0.28707    
   100.00  0.28353    
   101.00  0.28022    
   102.00  0.27714    
   103.00  0.27427    
   104.00  0.27162    
   105.00  0.26917    
   106.00  0.26691    
   107.00  0.26484    
   108.00  0.26297    
   109.00  0.26127    
   110.00  0.25974    
   111.00  0.25839    
   112.00  0.25722    
   113.00  0.25620    
   114.00  0.25535    
   115.00  0.25467    
   116.00  0.25414    
   117.00  0.25377    
   118.00  0.25356    
   119.00  0.25352    
   120.00  0.25363    
   121.00  0.25391    
   122.00  0.25436    
   123.00  0.25498    
   124.00  0.25578    
   125.00  0.25676    
   126.00  0.25794    
   127.00  0.25934    
   128.00  0.26095    
   129.00  0.26281    
   130.00  0.26493    
   131.00  0.26733    
   132.00  0.27004    
   133.00  0.27308    
   134.00  0.27650    
   135.00  0.28031    
   136.00  0.28458    
   137.00  0.28932    
   138.00  0.29458    
   139.00  0.30040    
   140.00  0.30681    
   141.00  0.31384    
   142.00  0.32151    
   143.00  0.32981    
   144.00  0.33873    
   145.00  0.34823    
   146.00  0.35825    
   147.00  0.36867    
   148.00  0.37934    
   149.00  0.39011    
   150.00  0.40077    
   151.00  0.41107    
   152.00  0.42075    
   153.00  0.42961    
   154.00  0.43739    
   155.00  0.44393    
   156.00  0.44922    
   157.00  0.45337    
   158.00  0.45659    
   159.00  0.45932    
   160.00  0.46224    
   161.00  0.46601    
   162.00  0.47135    
   163.00  0.47913    
   164.00  0.48990    
   165.00  0.50349    
   166.00  0.51924    
   167.00  0.53597    
   168.00  0.55180    
   169.00  0.56505    
   170.00  0.57523    
   171.00  0.58192    
   172.00  0.58335    
   173.00  0.57750    
   174.00  0.56382    
   175.00  0.54434    
   176.00  0.52730    
   177.00  0.52838    
   178.00  0.55728    
   179.00  0.59880    
   180.00  0.61878    
 |--------|------------|
0.560000     micron = Wavelength
0.241404     = Extinction efficiency (Q)
0.222697     = Scattering efficiency (Qs)
0.187079E-01 = Absorption efficiency (Qa)
 22.0142     = Lidar ratio
0.116580E-01 micron^2 = <b> = Average surface area per particle
0.281429E-02 microns^2 = Extinction cross section (C)
0.259620E-02 microns^2 = Scattering cross section (Cs)
0.218097E-03 microns^2 = Absorption cross section (Ca)
 |----------------------------------------------------|
 | COMMENTAIRES:                                      |
 |----------------------------------------------------|
 |   -Cross section / <b> should = efficiency         |
 |    is independant of the normalisation of dN/dx    |
 |   -The integral of the phase fct / 4 pi over all   |
 |    directions (solid angle) = 1.                   |
 |   -The volume coefficient (k) is equal to C * N    |
 |      = cross section * Number density              |
 |      typical units: [um^2]*[particles/cm^3] =      |
 |      [10^-3 km-1]                                  |
 |      N = M/(d*4/3*pi*r^3) where d is the density   |
 |      of particle, M is the mass per unit volume    |
 |      and 4/3*pi*r^3 is the average volume  of a    |
 |      particle.                                     |
 |      typical units:  M -> [ug/m^3], d -> [g/cm^3]  |
 |                      r -> [um]                     |
 |      Lidar ratio= 4 pi Qe / phase_fct(180)*Qs      |
 |----------------------------------------------------|
