 |--------|------------|
 | ANGLE  |  PHASE FCT |
 |--------|------------|
     0.00   68.385    
     1.00   66.145    
     2.00   60.031    
     3.00   51.543    
     4.00   42.359    
     5.00   33.744    
     6.00   26.362    
     7.00   20.402    
     8.00   15.786    
     9.00   12.314    
    10.00   9.7558    
    11.00   7.8931    
    12.00   6.5448    
    13.00   5.5693    
    14.00   4.8596    
    15.00   4.3373    
    16.00   3.9469    
    17.00   3.6489    
    18.00   3.4158    
    19.00   3.2284    
    20.00   3.0733    
    21.00   2.9412    
    22.00   2.8258    
    23.00   2.7226    
    24.00   2.6287    
    25.00   2.5419    
    26.00   2.4606    
    27.00   2.3839    
    28.00   2.3111    
    29.00   2.2416    
    30.00   2.1749    
    31.00   2.1108    
    32.00   2.0490    
    33.00   1.9894    
    34.00   1.9317    
    35.00   1.8759    
    36.00   1.8218    
    37.00   1.7694    
    38.00   1.7185    
    39.00   1.6691    
    40.00   1.6212    
    41.00   1.5746    
    42.00   1.5293    
    43.00   1.4853    
    44.00   1.4426    
    45.00   1.4011    
    46.00   1.3607    
    47.00   1.3215    
    48.00   1.2834    
    49.00   1.2463    
    50.00   1.2104    
    51.00   1.1754    
    52.00   1.1415    
    53.00   1.1086    
    54.00   1.0766    
    55.00   1.0456    
    56.00   1.0155    
    57.00  0.98638    
    58.00  0.95811    
    59.00  0.93071    
    60.00  0.90418    
    61.00  0.87848    
    62.00  0.85361    
    63.00  0.82955    
    64.00  0.80628    
    65.00  0.78378    
    66.00  0.76205    
    67.00  0.74107    
    68.00  0.72081    
    69.00  0.70127    
    70.00  0.68243    
    71.00  0.66428    
    72.00  0.64680    
    73.00  0.62997    
    74.00  0.61379    
    75.00  0.59823    
    76.00  0.58328    
    77.00  0.56894    
    78.00  0.55518    
    79.00  0.54199    
    80.00  0.52935    
    81.00  0.51725    
    82.00  0.50569    
    83.00  0.49463    
    84.00  0.48408    
    85.00  0.47401    
    86.00  0.46442    
    87.00  0.45528    
    88.00  0.44659    
    89.00  0.43834    
    90.00  0.43051    
    91.00  0.42310    
    92.00  0.41608    
    93.00  0.40945    
    94.00  0.40320    
    95.00  0.39731    
    96.00  0.39178    
    97.00  0.38660    
    98.00  0.38175    
    99.00  0.37722    
   100.00  0.37302    
   101.00  0.36912    
   102.00  0.36551    
   103.00  0.36220    
   104.00  0.35917    
   105.00  0.35642    
   106.00  0.35393    
   107.00  0.35169    
   108.00  0.34971    
   109.00  0.34797    
   110.00  0.34646    
   111.00  0.34519    
   112.00  0.34414    
   113.00  0.34330    
   114.00  0.34268    
   115.00  0.34227    
   116.00  0.34205    
   117.00  0.34204    
   118.00  0.34222    
   119.00  0.34258    
   120.00  0.34314    
   121.00  0.34388    
   122.00  0.34480    
   123.00  0.34591    
   124.00  0.34720    
   125.00  0.34868    
   126.00  0.35034    
   127.00  0.35220    
   128.00  0.35425    
   129.00  0.35651    
   130.00  0.35897    
   131.00  0.36165    
   132.00  0.36456    
   133.00  0.36771    
   134.00  0.37112    
   135.00  0.37480    
   136.00  0.37877    
   137.00  0.38304    
   138.00  0.38764    
   139.00  0.39259    
   140.00  0.39790    
   141.00  0.40360    
   142.00  0.40970    
   143.00  0.41622    
   144.00  0.42317    
   145.00  0.43055    
   146.00  0.43838    
   147.00  0.44664    
   148.00  0.45532    
   149.00  0.46442    
   150.00  0.47391    
   151.00  0.48377    
   152.00  0.49399    
   153.00  0.50456    
   154.00  0.51548    
   155.00  0.52678    
   156.00  0.53850    
   157.00  0.55069    
   158.00  0.56340    
   159.00  0.57667    
   160.00  0.59043    
   161.00  0.60451    
   162.00  0.61852    
   163.00  0.63186    
   164.00  0.64362    
   165.00  0.65265    
   166.00  0.65774    
   167.00  0.65787    
   168.00  0.65242    
   169.00  0.64141    
   170.00  0.62555    
   171.00  0.60610    
   172.00  0.58491    
   173.00  0.56459    
   174.00  0.54869    
   175.00  0.54127    
   176.00  0.54578    
   177.00  0.56298    
   178.00  0.58832    
   179.00  0.61146    
   180.00  0.62088    
 |--------|------------|
0.430000     micron = Wavelength
0.185798     = Extinction efficiency (Q)
0.172337     = Scattering efficiency (Qs)
0.134609E-01 = Absorption efficiency (Qa)
 21.8205     = Lidar ratio
0.627997E-02 micron^2 = <b> = Average surface area per particle
0.116681E-02 microns^2 = Extinction cross section (C)
0.108227E-02 microns^2 = Scattering cross section (Cs)
0.845342E-04 microns^2 = Absorption cross section (Ca)
 |----------------------------------------------------|
 | COMMENTAIRES:                                      |
 |----------------------------------------------------|
 |   -Cross section / <b> should = efficiency         |
 |    is independant of the normalisation of dN/dx    |
 |   -The integral of the phase fct / 4 pi over all   |
 |    directions (solid angle) = 1.                   |
 |   -The volume coefficient (k) is equal to C * N    |
 |      = cross section * Number density              |
 |      typical units: [um^2]*[particles/cm^3] =      |
 |      [10^-3 km-1]                                  |
 |      N = M/(d*4/3*pi*r^3) where d is the density   |
 |      of particle, M is the mass per unit volume    |
 |      and 4/3*pi*r^3 is the average volume  of a    |
 |      particle.                                     |
 |      typical units:  M -> [ug/m^3], d -> [g/cm^3]  |
 |                      r -> [um]                     |
 |      Lidar ratio= 4 pi Qe / phase_fct(180)*Qs      |
 |----------------------------------------------------|
