 |--------|------------|
 | ANGLE  |  PHASE FCT |
 |--------|------------|
     0.00   104.63    
     1.00   101.36    
     2.00   92.379    
     3.00   79.799    
     4.00   66.008    
     5.00   52.868    
     6.00   41.419    
     7.00   32.020    
     8.00   24.623    
     9.00   18.975    
    10.00   14.753    
    11.00   11.640    
    12.00   9.3627    
    13.00   7.7010    
    14.00   6.4860    
    15.00   5.5914    
    16.00   4.9252    
    17.00   4.4208    
    18.00   4.0310    
    19.00   3.7222    
    20.00   3.4713    
    21.00   3.2617    
    22.00   3.0819    
    23.00   2.9239    
    24.00   2.7825    
    25.00   2.6539    
    26.00   2.5352    
    27.00   2.4247    
    28.00   2.3210    
    29.00   2.2233    
    30.00   2.1308    
    31.00   2.0429    
    32.00   1.9592    
    33.00   1.8795    
    34.00   1.8034    
    35.00   1.7307    
    36.00   1.6612    
    37.00   1.5948    
    38.00   1.5312    
    39.00   1.4704    
    40.00   1.4121    
    41.00   1.3564    
    42.00   1.3031    
    43.00   1.2521    
    44.00   1.2032    
    45.00   1.1564    
    46.00   1.1117    
    47.00   1.0688    
    48.00   1.0278    
    49.00  0.98857    
    50.00  0.95104    
    51.00  0.91513    
    52.00  0.88076    
    53.00  0.84789    
    54.00  0.81646    
    55.00  0.78639    
    56.00  0.75763    
    57.00  0.73014    
    58.00  0.70386    
    59.00  0.67873    
    60.00  0.65471    
    61.00  0.63175    
    62.00  0.60982    
    63.00  0.58887    
    64.00  0.56885    
    65.00  0.54973    
    66.00  0.53149    
    67.00  0.51406    
    68.00  0.49743    
    69.00  0.48157    
    70.00  0.46643    
    71.00  0.45200    
    72.00  0.43824    
    73.00  0.42514    
    74.00  0.41265    
    75.00  0.40076    
    76.00  0.38944    
    77.00  0.37867    
    78.00  0.36843    
    79.00  0.35869    
    80.00  0.34944    
    81.00  0.34065    
    82.00  0.33232    
    83.00  0.32440    
    84.00  0.31690    
    85.00  0.30979    
    86.00  0.30306    
    87.00  0.29669    
    88.00  0.29067    
    89.00  0.28497    
    90.00  0.27960    
    91.00  0.27453    
    92.00  0.26975    
    93.00  0.26525    
    94.00  0.26103    
    95.00  0.25706    
    96.00  0.25334    
    97.00  0.24986    
    98.00  0.24661    
    99.00  0.24359    
   100.00  0.24078    
   101.00  0.23818    
   102.00  0.23578    
   103.00  0.23358    
   104.00  0.23157    
   105.00  0.22975    
   106.00  0.22811    
   107.00  0.22665    
   108.00  0.22537    
   109.00  0.22426    
   110.00  0.22332    
   111.00  0.22255    
   112.00  0.22196    
   113.00  0.22152    
   114.00  0.22126    
   115.00  0.22116    
   116.00  0.22124    
   117.00  0.22149    
   118.00  0.22191    
   119.00  0.22252    
   120.00  0.22331    
   121.00  0.22429    
   122.00  0.22547    
   123.00  0.22686    
   124.00  0.22847    
   125.00  0.23030    
   126.00  0.23238    
   127.00  0.23471    
   128.00  0.23731    
   129.00  0.24021    
   130.00  0.24341    
   131.00  0.24695    
   132.00  0.25084    
   133.00  0.25512    
   134.00  0.25980    
   135.00  0.26492    
   136.00  0.27050    
   137.00  0.27657    
   138.00  0.28316    
   139.00  0.29029    
   140.00  0.29797    
   141.00  0.30624    
   142.00  0.31508    
   143.00  0.32450    
   144.00  0.33448    
   145.00  0.34501    
   146.00  0.35604    
   147.00  0.36752    
   148.00  0.37939    
   149.00  0.39157    
   150.00  0.40398    
   151.00  0.41655    
   152.00  0.42922    
   153.00  0.44194    
   154.00  0.45472    
   155.00  0.46761    
   156.00  0.48075    
   157.00  0.49433    
   158.00  0.50857    
   159.00  0.52374    
   160.00  0.54001    
   161.00  0.55739    
   162.00  0.57560    
   163.00  0.59397    
   164.00  0.61126    
   165.00  0.62567    
   166.00  0.63499    
   167.00  0.63690    
   168.00  0.62956    
   169.00  0.61218    
   170.00  0.58569    
   171.00  0.55278    
   172.00  0.51779    
   173.00  0.48648    
   174.00  0.46550    
   175.00  0.46118    
   176.00  0.47766    
   177.00  0.51391    
   178.00  0.56069    
   179.00  0.60096    
   180.00  0.61695    
 |--------|------------|
0.670000     micron = Wavelength
0.168693     = Extinction efficiency (Q)
0.155600     = Scattering efficiency (Qs)
0.130929E-01 = Absorption efficiency (Qa)
 22.0824     = Lidar ratio
0.957046E-02 micron^2 = <b> = Average surface area per particle
0.161447E-02 microns^2 = Extinction cross section (C)
0.148916E-02 microns^2 = Scattering cross section (Cs)
0.125305E-03 microns^2 = Absorption cross section (Ca)
 |----------------------------------------------------|
 | COMMENTAIRES:                                      |
 |----------------------------------------------------|
 |   -Cross section / <b> should = efficiency         |
 |    is independant of the normalisation of dN/dx    |
 |   -The integral of the phase fct / 4 pi over all   |
 |    directions (solid angle) = 1.                   |
 |   -The volume coefficient (k) is equal to C * N    |
 |      = cross section * Number density              |
 |      typical units: [um^2]*[particles/cm^3] =      |
 |      [10^-3 km-1]                                  |
 |      N = M/(d*4/3*pi*r^3) where d is the density   |
 |      of particle, M is the mass per unit volume    |
 |      and 4/3*pi*r^3 is the average volume  of a    |
 |      particle.                                     |
 |      typical units:  M -> [ug/m^3], d -> [g/cm^3]  |
 |                      r -> [um]                     |
 |      Lidar ratio= 4 pi Qe / phase_fct(180)*Qs      |
 |----------------------------------------------------|
