 |--------|------------|
 | ANGLE  |  PHASE FCT |
 |--------|------------|
     0.00   50.387    
     1.00   49.678    
     2.00   47.642    
     3.00   44.530    
     4.00   40.679    
     5.00   36.442    
     6.00   32.124    
     7.00   27.959    
     8.00   24.104    
     9.00   20.646    
    10.00   17.619    
    11.00   15.020    
    12.00   12.822    
    13.00   10.983    
    14.00   9.4588    
    15.00   8.2022    
    16.00   7.1699    
    17.00   6.3233    
    18.00   5.6284    
    19.00   5.0564    
    20.00   4.5833    
    21.00   4.1893    
    22.00   3.8583    
    23.00   3.5773    
    24.00   3.3361    
    25.00   3.1265    
    26.00   2.9421    
    27.00   2.7779    
    28.00   2.6301    
    29.00   2.4955    
    30.00   2.3720    
    31.00   2.2577    
    32.00   2.1513    
    33.00   2.0516    
    34.00   1.9579    
    35.00   1.8695    
    36.00   1.7858    
    37.00   1.7065    
    38.00   1.6312    
    39.00   1.5596    
    40.00   1.4915    
    41.00   1.4268    
    42.00   1.3651    
    43.00   1.3065    
    44.00   1.2506    
    45.00   1.1974    
    46.00   1.1468    
    47.00   1.0986    
    48.00   1.0527    
    49.00   1.0091    
    50.00  0.96753    
    51.00  0.92801    
    52.00  0.89040    
    53.00  0.85463    
    54.00  0.82060    
    55.00  0.78823    
    56.00  0.75744    
    57.00  0.72816    
    58.00  0.70030    
    59.00  0.67381    
    60.00  0.64861    
    61.00  0.62465    
    62.00  0.60186    
    63.00  0.58018    
    64.00  0.55956    
    65.00  0.53994    
    66.00  0.52130    
    67.00  0.50356    
    68.00  0.48669    
    69.00  0.47064    
    70.00  0.45538    
    71.00  0.44087    
    72.00  0.42707    
    73.00  0.41395    
    74.00  0.40149    
    75.00  0.38963    
    76.00  0.37837    
    77.00  0.36766    
    78.00  0.35750    
    79.00  0.34784    
    80.00  0.33868    
    81.00  0.32998    
    82.00  0.32174    
    83.00  0.31392    
    84.00  0.30651    
    85.00  0.29949    
    86.00  0.29285    
    87.00  0.28657    
    88.00  0.28064    
    89.00  0.27504    
    90.00  0.26976    
    91.00  0.26479    
    92.00  0.26012    
    93.00  0.25573    
    94.00  0.25162    
    95.00  0.24777    
    96.00  0.24419    
    97.00  0.24085    
    98.00  0.23775    
    99.00  0.23489    
   100.00  0.23225    
   101.00  0.22983    
   102.00  0.22763    
   103.00  0.22563    
   104.00  0.22384    
   105.00  0.22225    
   106.00  0.22085    
   107.00  0.21964    
   108.00  0.21862    
   109.00  0.21779    
   110.00  0.21713    
   111.00  0.21666    
   112.00  0.21636    
   113.00  0.21624    
   114.00  0.21629    
   115.00  0.21652    
   116.00  0.21693    
   117.00  0.21751    
   118.00  0.21827    
   119.00  0.21920    
   120.00  0.22033    
   121.00  0.22163    
   122.00  0.22313    
   123.00  0.22483    
   124.00  0.22672    
   125.00  0.22882    
   126.00  0.23114    
   127.00  0.23367    
   128.00  0.23645    
   129.00  0.23946    
   130.00  0.24273    
   131.00  0.24627    
   132.00  0.25010    
   133.00  0.25422    
   134.00  0.25865    
   135.00  0.26342    
   136.00  0.26854    
   137.00  0.27404    
   138.00  0.27994    
   139.00  0.28625    
   140.00  0.29303    
   141.00  0.30028    
   142.00  0.30805    
   143.00  0.31636    
   144.00  0.32526    
   145.00  0.33478    
   146.00  0.34498    
   147.00  0.35591    
   148.00  0.36760    
   149.00  0.38013    
   150.00  0.39353    
   151.00  0.40785    
   152.00  0.42313    
   153.00  0.43936    
   154.00  0.45651    
   155.00  0.47447    
   156.00  0.49305    
   157.00  0.51194    
   158.00  0.53069    
   159.00  0.54866    
   160.00  0.56504    
   161.00  0.57884    
   162.00  0.58891    
   163.00  0.59406    
   164.00  0.59314    
   165.00  0.58530    
   166.00  0.57011    
   167.00  0.54790    
   168.00  0.51983    
   169.00  0.48804    
   170.00  0.45551    
   171.00  0.42582    
   172.00  0.40267    
   173.00  0.38931    
   174.00  0.38780    
   175.00  0.39838    
   176.00  0.41901    
   177.00  0.44533    
   178.00  0.47122    
   179.00  0.49017    
   180.00  0.49712    
 |--------|------------|
0.670000     micron = Wavelength
0.120300     = Extinction efficiency (Q)
0.110995     = Scattering efficiency (Qs)
0.930448E-02 = Absorption efficiency (Qa)
 27.3973     = Lidar ratio
0.628002E-02 micron^2 = <b> = Average surface area per particle
0.755485E-03 microns^2 = Extinction cross section (C)
0.697052E-03 microns^2 = Scattering cross section (Cs)
0.584323E-04 microns^2 = Absorption cross section (Ca)
 |----------------------------------------------------|
 | COMMENTAIRES:                                      |
 |----------------------------------------------------|
 |   -Cross section / <b> should = efficiency         |
 |    is independant of the normalisation of dN/dx    |
 |   -The integral of the phase fct / 4 pi over all   |
 |    directions (solid angle) = 1.                   |
 |   -The volume coefficient (k) is equal to C * N    |
 |      = cross section * Number density              |
 |      typical units: [um^2]*[particles/cm^3] =      |
 |      [10^-3 km-1]                                  |
 |      N = M/(d*4/3*pi*r^3) where d is the density   |
 |      of particle, M is the mass per unit volume    |
 |      and 4/3*pi*r^3 is the average volume  of a    |
 |      particle.                                     |
 |      typical units:  M -> [ug/m^3], d -> [g/cm^3]  |
 |                      r -> [um]                     |
 |      Lidar ratio= 4 pi Qe / phase_fct(180)*Qs      |
 |----------------------------------------------------|
