 |--------|------------|
 | ANGLE  |  PHASE FCT |
 |--------|------------|
     0.00   39.721    
     1.00   39.263    
     2.00   37.939    
     3.00   35.882    
     4.00   33.279    
     5.00   30.337    
     6.00   27.248    
     7.00   24.173    
     8.00   21.233    
     9.00   18.507    
    10.00   16.044    
    11.00   13.861    
    12.00   11.959    
    13.00   10.322    
    14.00   8.9278    
    15.00   7.7508    
    16.00   6.7630    
    17.00   5.9378    
    18.00   5.2504    
    19.00   4.6787    
    20.00   4.2032    
    21.00   3.8071    
    22.00   3.4764    
    23.00   3.1992    
    24.00   2.9654    
    25.00   2.7670    
    26.00   2.5973    
    27.00   2.4507    
    28.00   2.3229    
    29.00   2.2103    
    30.00   2.1099    
    31.00   2.0195    
    32.00   1.9372    
    33.00   1.8616    
    34.00   1.7915    
    35.00   1.7260    
    36.00   1.6644    
    37.00   1.6062    
    38.00   1.5509    
    39.00   1.4982    
    40.00   1.4478    
    41.00   1.3994    
    42.00   1.3529    
    43.00   1.3083    
    44.00   1.2652    
    45.00   1.2238    
    46.00   1.1838    
    47.00   1.1453    
    48.00   1.1082    
    49.00   1.0723    
    50.00   1.0377    
    51.00   1.0044    
    52.00  0.97220    
    53.00  0.94117    
    54.00  0.91125    
    55.00  0.88241    
    56.00  0.85461    
    57.00  0.82783    
    58.00  0.80202    
    59.00  0.77715    
    60.00  0.75320    
    61.00  0.73014    
    62.00  0.70795    
    63.00  0.68658    
    64.00  0.66603    
    65.00  0.64625    
    66.00  0.62723    
    67.00  0.60894    
    68.00  0.59136    
    69.00  0.57446    
    70.00  0.55823    
    71.00  0.54264    
    72.00  0.52767    
    73.00  0.51331    
    74.00  0.49952    
    75.00  0.48630    
    76.00  0.47363    
    77.00  0.46149    
    78.00  0.44986    
    79.00  0.43873    
    80.00  0.42808    
    81.00  0.41790    
    82.00  0.40817    
    83.00  0.39888    
    84.00  0.39002    
    85.00  0.38157    
    86.00  0.37352    
    87.00  0.36586    
    88.00  0.35859    
    89.00  0.35168    
    90.00  0.34512    
    91.00  0.33892    
    92.00  0.33305    
    93.00  0.32751    
    94.00  0.32228    
    95.00  0.31737    
    96.00  0.31275    
    97.00  0.30843    
    98.00  0.30439    
    99.00  0.30063    
   100.00  0.29714    
   101.00  0.29391    
   102.00  0.29093    
   103.00  0.28820    
   104.00  0.28572    
   105.00  0.28347    
   106.00  0.28144    
   107.00  0.27965    
   108.00  0.27807    
   109.00  0.27671    
   110.00  0.27555    
   111.00  0.27460    
   112.00  0.27385    
   113.00  0.27330    
   114.00  0.27295    
   115.00  0.27278    
   116.00  0.27281    
   117.00  0.27302    
   118.00  0.27342    
   119.00  0.27401    
   120.00  0.27478    
   121.00  0.27575    
   122.00  0.27690    
   123.00  0.27824    
   124.00  0.27978    
   125.00  0.28152    
   126.00  0.28347    
   127.00  0.28564    
   128.00  0.28804    
   129.00  0.29067    
   130.00  0.29357    
   131.00  0.29674    
   132.00  0.30021    
   133.00  0.30401    
   134.00  0.30816    
   135.00  0.31271    
   136.00  0.31769    
   137.00  0.32316    
   138.00  0.32916    
   139.00  0.33578    
   140.00  0.34306    
   141.00  0.35110    
   142.00  0.35997    
   143.00  0.36977    
   144.00  0.38057    
   145.00  0.39246    
   146.00  0.40551    
   147.00  0.41977    
   148.00  0.43529    
   149.00  0.45204    
   150.00  0.46996    
   151.00  0.48895    
   152.00  0.50879    
   153.00  0.52921    
   154.00  0.54982    
   155.00  0.57016    
   156.00  0.58967    
   157.00  0.60775    
   158.00  0.62378    
   159.00  0.63721    
   160.00  0.64762    
   161.00  0.65483    
   162.00  0.65898    
   163.00  0.66060    
   164.00  0.66066    
   165.00  0.66054    
   166.00  0.66195    
   167.00  0.66684    
   168.00  0.67723    
   169.00  0.69501    
   170.00  0.72177    
   171.00  0.75861    
   172.00  0.80588    
   173.00  0.86288    
   174.00  0.92772    
   175.00  0.99709    
   176.00   1.0663    
   177.00   1.1296    
   178.00   1.1808    
   179.00   1.2142    
   180.00   1.2259    
 |--------|------------|
0.500000     micron = Wavelength
0.116322     = Extinction efficiency (Q)
0.102743     = Scattering efficiency (Qs)
0.135787E-01 = Absorption efficiency (Qa)
 11.6059     = Lidar ratio
0.302566E-02 micron^2 = <b> = Average surface area per particle
0.351950E-03 microns^2 = Extinction cross section (C)
0.310866E-03 microns^2 = Scattering cross section (Cs)
0.410845E-04 microns^2 = Absorption cross section (Ca)
 |----------------------------------------------------|
 | COMMENTAIRES:                                      |
 |----------------------------------------------------|
 |   -Cross section / <b> should = efficiency         |
 |    is independant of the normalisation of dN/dx    |
 |   -The integral of the phase fct / 4 pi over all   |
 |    directions (solid angle) = 1.                   |
 |   -The volume coefficient (k) is equal to C * N    |
 |      = cross section * Number density              |
 |      typical units: [um^2]*[particles/cm^3] =      |
 |      [10^-3 km-1]                                  |
 |      N = M/(d*4/3*pi*r^3) where d is the density   |
 |      of particle, M is the mass per unit volume    |
 |      and 4/3*pi*r^3 is the average volume  of a    |
 |      particle.                                     |
 |      typical units:  M -> [ug/m^3], d -> [g/cm^3]  |
 |                      r -> [um]                     |
 |      Lidar ratio= 4 pi Qe / phase_fct(180)*Qs      |
 |----------------------------------------------------|
