 |--------|------------|
 | ANGLE  |  PHASE FCT |
 |--------|------------|
     0.00   62.958    
     1.00   61.631    
     2.00   57.900    
     3.00   52.403    
     4.00   45.944    
     5.00   39.263    
     6.00   32.901    
     7.00   27.187    
     8.00   22.268    
     9.00   18.169    
    10.00   14.832    
    11.00   12.165    
    12.00   10.062    
    13.00   8.4174    
    14.00   7.1389    
    15.00   6.1475    
    16.00   5.3780    
    17.00   4.7784    
    18.00   4.3076    
    19.00   3.9341    
    20.00   3.6336    
    21.00   3.3876    
    22.00   3.1824    
    23.00   3.0077    
    24.00   2.8560    
    25.00   2.7216    
    26.00   2.6006    
    27.00   2.4899    
    28.00   2.3873    
    29.00   2.2915    
    30.00   2.2012    
    31.00   2.1156    
    32.00   2.0341    
    33.00   1.9564    
    34.00   1.8820    
    35.00   1.8107    
    36.00   1.7423    
    37.00   1.6768    
    38.00   1.6138    
    39.00   1.5534    
    40.00   1.4953    
    41.00   1.4397    
    42.00   1.3862    
    43.00   1.3349    
    44.00   1.2858    
    45.00   1.2386    
    46.00   1.1933    
    47.00   1.1500    
    48.00   1.1084    
    49.00   1.0685    
    50.00   1.0303    
    51.00  0.99375    
    52.00  0.95870    
    53.00  0.92513    
    54.00  0.89297    
    55.00  0.86218    
    56.00  0.83269    
    57.00  0.80445    
    58.00  0.77742    
    59.00  0.75154    
    60.00  0.72678    
    61.00  0.70307    
    62.00  0.68039    
    63.00  0.65867    
    64.00  0.63791    
    65.00  0.61805    
    66.00  0.59905    
    67.00  0.58088    
    68.00  0.56352    
    69.00  0.54692    
    70.00  0.53105    
    71.00  0.51589    
    72.00  0.50142    
    73.00  0.48760    
    74.00  0.47441    
    75.00  0.46183    
    76.00  0.44983    
    77.00  0.43840    
    78.00  0.42750    
    79.00  0.41712    
    80.00  0.40724    
    81.00  0.39785    
    82.00  0.38891    
    83.00  0.38043    
    84.00  0.37238    
    85.00  0.36474    
    86.00  0.35751    
    87.00  0.35066    
    88.00  0.34419    
    89.00  0.33807    
    90.00  0.33230    
    91.00  0.32687    
    92.00  0.32177    
    93.00  0.31698    
    94.00  0.31249    
    95.00  0.30830    
    96.00  0.30439    
    97.00  0.30076    
    98.00  0.29739    
    99.00  0.29429    
   100.00  0.29144    
   101.00  0.28883    
   102.00  0.28646    
   103.00  0.28433    
   104.00  0.28242    
   105.00  0.28073    
   106.00  0.27926    
   107.00  0.27800    
   108.00  0.27694    
   109.00  0.27609    
   110.00  0.27543    
   111.00  0.27498    
   112.00  0.27471    
   113.00  0.27464    
   114.00  0.27476    
   115.00  0.27506    
   116.00  0.27556    
   117.00  0.27624    
   118.00  0.27711    
   119.00  0.27817    
   120.00  0.27942    
   121.00  0.28086    
   122.00  0.28250    
   123.00  0.28435    
   124.00  0.28640    
   125.00  0.28866    
   126.00  0.29115    
   127.00  0.29387    
   128.00  0.29683    
   129.00  0.30004    
   130.00  0.30351    
   131.00  0.30725    
   132.00  0.31129    
   133.00  0.31563    
   134.00  0.32030    
   135.00  0.32530    
   136.00  0.33066    
   137.00  0.33639    
   138.00  0.34251    
   139.00  0.34905    
   140.00  0.35601    
   141.00  0.36341    
   142.00  0.37128    
   143.00  0.37961    
   144.00  0.38842    
   145.00  0.39772    
   146.00  0.40753    
   147.00  0.41785    
   148.00  0.42869    
   149.00  0.44007    
   150.00  0.45201    
   151.00  0.46455    
   152.00  0.47772    
   153.00  0.49158    
   154.00  0.50616    
   155.00  0.52153    
   156.00  0.53771    
   157.00  0.55469    
   158.00  0.57236    
   159.00  0.59048    
   160.00  0.60864    
   161.00  0.62616    
   162.00  0.64210    
   163.00  0.65522    
   164.00  0.66405    
   165.00  0.66705    
   166.00  0.66280    
   167.00  0.65035    
   168.00  0.62962    
   169.00  0.60165    
   170.00  0.56885    
   171.00  0.53482    
   172.00  0.50404    
   173.00  0.48127    
   174.00  0.47074    
   175.00  0.47504    
   176.00  0.49395    
   177.00  0.52351    
   178.00  0.55594    
   179.00  0.58127    
   180.00  0.59087    
 |--------|------------|
0.600000     micron = Wavelength
0.133495     = Extinction efficiency (Q)
0.123538     = Scattering efficiency (Qs)
0.995685E-02 = Absorption efficiency (Qa)
 22.9817     = Lidar ratio
0.747897E-02 micron^2 = <b> = Average surface area per particle
0.998404E-03 microns^2 = Extinction cross section (C)
0.923937E-03 microns^2 = Scattering cross section (Cs)
0.744671E-04 microns^2 = Absorption cross section (Ca)
 |----------------------------------------------------|
 | COMMENTAIRES:                                      |
 |----------------------------------------------------|
 |   -Cross section / <b> should = efficiency         |
 |    is independant of the normalisation of dN/dx    |
 |   -The integral of the phase fct / 4 pi over all   |
 |    directions (solid angle) = 1.                   |
 |   -The volume coefficient (k) is equal to C * N    |
 |      = cross section * Number density              |
 |      typical units: [um^2]*[particles/cm^3] =      |
 |      [10^-3 km-1]                                  |
 |      N = M/(d*4/3*pi*r^3) where d is the density   |
 |      of particle, M is the mass per unit volume    |
 |      and 4/3*pi*r^3 is the average volume  of a    |
 |      particle.                                     |
 |      typical units:  M -> [ug/m^3], d -> [g/cm^3]  |
 |                      r -> [um]                     |
 |      Lidar ratio= 4 pi Qe / phase_fct(180)*Qs      |
 |----------------------------------------------------|
