 |--------|------------|
 | ANGLE  |  PHASE FCT |
 |--------|------------|
     0.00   33.481    
     1.00   33.218    
     2.00   32.448    
     3.00   31.228    
     4.00   29.642    
     5.00   27.788    
     6.00   25.763    
     7.00   23.660    
     8.00   21.555    
     9.00   19.510    
    10.00   17.568    
    11.00   15.760    
    12.00   14.101    
    13.00   12.599    
    14.00   11.252    
    15.00   10.054    
    16.00   8.9954    
    17.00   8.0649    
    18.00   7.2498    
    19.00   6.5375    
    20.00   5.9158    
    21.00   5.3735    
    22.00   4.9000    
    23.00   4.4860    
    24.00   4.1231    
    25.00   3.8040    
    26.00   3.5225    
    27.00   3.2730    
    28.00   3.0508    
    29.00   2.8520    
    30.00   2.6733    
    31.00   2.5117    
    32.00   2.3649    
    33.00   2.2309    
    34.00   2.1081    
    35.00   1.9950    
    36.00   1.8905    
    37.00   1.7934    
    38.00   1.7032    
    39.00   1.6189    
    40.00   1.5401    
    41.00   1.4661    
    42.00   1.3967    
    43.00   1.3313    
    44.00   1.2697    
    45.00   1.2116    
    46.00   1.1567    
    47.00   1.1048    
    48.00   1.0557    
    49.00   1.0092    
    50.00  0.96517    
    51.00  0.92347    
    52.00  0.88393    
    53.00  0.84643    
    54.00  0.81087    
    55.00  0.77713    
    56.00  0.74511    
    57.00  0.71471    
    58.00  0.68586    
    59.00  0.65846    
    60.00  0.63243    
    61.00  0.60771    
    62.00  0.58424    
    63.00  0.56193    
    64.00  0.54073    
    65.00  0.52060    
    66.00  0.50145    
    67.00  0.48327    
    68.00  0.46598    
    69.00  0.44954    
    70.00  0.43392    
    71.00  0.41907    
    72.00  0.40495    
    73.00  0.39153    
    74.00  0.37877    
    75.00  0.36665    
    76.00  0.35512    
    77.00  0.34416    
    78.00  0.33375    
    79.00  0.32386    
    80.00  0.31446    
    81.00  0.30554    
    82.00  0.29706    
    83.00  0.28902    
    84.00  0.28138    
    85.00  0.27414    
    86.00  0.26728    
    87.00  0.26077    
    88.00  0.25462    
    89.00  0.24879    
    90.00  0.24328    
    91.00  0.23807    
    92.00  0.23316    
    93.00  0.22853    
    94.00  0.22417    
    95.00  0.22007    
    96.00  0.21623    
    97.00  0.21262    
    98.00  0.20925    
    99.00  0.20611    
   100.00  0.20319    
   101.00  0.20049    
   102.00  0.19798    
   103.00  0.19569    
   104.00  0.19358    
   105.00  0.19167    
   106.00  0.18995    
   107.00  0.18840    
   108.00  0.18704    
   109.00  0.18586    
   110.00  0.18484    
   111.00  0.18400    
   112.00  0.18333    
   113.00  0.18282    
   114.00  0.18249    
   115.00  0.18232    
   116.00  0.18231    
   117.00  0.18248    
   118.00  0.18281    
   119.00  0.18332    
   120.00  0.18400    
   121.00  0.18486    
   122.00  0.18591    
   123.00  0.18714    
   124.00  0.18857    
   125.00  0.19020    
   126.00  0.19204    
   127.00  0.19411    
   128.00  0.19641    
   129.00  0.19895    
   130.00  0.20176    
   131.00  0.20485    
   132.00  0.20824    
   133.00  0.21195    
   134.00  0.21601    
   135.00  0.22043    
   136.00  0.22526    
   137.00  0.23053    
   138.00  0.23626    
   139.00  0.24250    
   140.00  0.24930    
   141.00  0.25668    
   142.00  0.26470    
   143.00  0.27341    
   144.00  0.28283    
   145.00  0.29301    
   146.00  0.30397    
   147.00  0.31574    
   148.00  0.32831    
   149.00  0.34165    
   150.00  0.35570    
   151.00  0.37036    
   152.00  0.38547    
   153.00  0.40083    
   154.00  0.41615    
   155.00  0.43107    
   156.00  0.44517    
   157.00  0.45795    
   158.00  0.46886    
   159.00  0.47735    
   160.00  0.48287    
   161.00  0.48496    
   162.00  0.48330    
   163.00  0.47781    
   164.00  0.46871    
   165.00  0.45656    
   166.00  0.44231    
   167.00  0.42728    
   168.00  0.41307    
   169.00  0.40147    
   170.00  0.39420    
   171.00  0.39276    
   172.00  0.39812    
   173.00  0.41054    
   174.00  0.42941    
   175.00  0.45311    
   176.00  0.47918    
   177.00  0.50448    
   178.00  0.52571    
   179.00  0.53984    
   180.00  0.54481    
 |--------|------------|
0.600000     micron = Wavelength
0.111164     = Extinction efficiency (Q)
0.102172     = Scattering efficiency (Qs)
0.899227E-02 = Absorption efficiency (Qa)
 25.0958     = Lidar ratio
0.313422E-02 micron^2 = <b> = Average surface area per particle
0.348412E-03 microns^2 = Extinction cross section (C)
0.320228E-03 microns^2 = Scattering cross section (Cs)
0.281837E-04 microns^2 = Absorption cross section (Ca)
 |----------------------------------------------------|
 | COMMENTAIRES:                                      |
 |----------------------------------------------------|
 |   -Cross section / <b> should = efficiency         |
 |    is independant of the normalisation of dN/dx    |
 |   -The integral of the phase fct / 4 pi over all   |
 |    directions (solid angle) = 1.                   |
 |   -The volume coefficient (k) is equal to C * N    |
 |      = cross section * Number density              |
 |      typical units: [um^2]*[particles/cm^3] =      |
 |      [10^-3 km-1]                                  |
 |      N = M/(d*4/3*pi*r^3) where d is the density   |
 |      of particle, M is the mass per unit volume    |
 |      and 4/3*pi*r^3 is the average volume  of a    |
 |      particle.                                     |
 |      typical units:  M -> [ug/m^3], d -> [g/cm^3]  |
 |                      r -> [um]                     |
 |      Lidar ratio= 4 pi Qe / phase_fct(180)*Qs      |
 |----------------------------------------------------|
