 |--------|------------|
 | ANGLE  |  PHASE FCT |
 |--------|------------|
     0.00   54.723    
     1.00   53.852    
     2.00   51.363    
     3.00   47.598    
     4.00   43.005    
     5.00   38.035    
     6.00   33.066    
     7.00   28.369    
     8.00   24.109    
     9.00   20.367    
    10.00   17.160    
    11.00   14.462    
    12.00   12.225    
    13.00   10.390    
    14.00   8.8969    
    15.00   7.6880    
    16.00   6.7114    
    17.00   5.9224    
    18.00   5.2836    
    19.00   4.7636    
    20.00   4.3372    
    21.00   3.9843    
    22.00   3.6886    
    23.00   3.4377    
    24.00   3.2217    
    25.00   3.0330    
    26.00   2.8659    
    27.00   2.7159    
    28.00   2.5796    
    29.00   2.4545    
    30.00   2.3387    
    31.00   2.2307    
    32.00   2.1294    
    33.00   2.0339    
    34.00   1.9436    
    35.00   1.8581    
    36.00   1.7768    
    37.00   1.6995    
    38.00   1.6260    
    39.00   1.5559    
    40.00   1.4891    
    41.00   1.4255    
    42.00   1.3649    
    43.00   1.3071    
    44.00   1.2520    
    45.00   1.1996    
    46.00   1.1496    
    47.00   1.1020    
    48.00   1.0567    
    49.00   1.0135    
    50.00  0.97242    
    51.00  0.93330    
    52.00  0.89607    
    53.00  0.86064    
    54.00  0.82691    
    55.00  0.79482    
    56.00  0.76427    
    57.00  0.73521    
    58.00  0.70756    
    59.00  0.68124    
    60.00  0.65620    
    61.00  0.63238    
    62.00  0.60970    
    63.00  0.58813    
    64.00  0.56761    
    65.00  0.54808    
    66.00  0.52950    
    67.00  0.51182    
    68.00  0.49500    
    69.00  0.47900    
    70.00  0.46379    
    71.00  0.44931    
    72.00  0.43555    
    73.00  0.42246    
    74.00  0.41001    
    75.00  0.39818    
    76.00  0.38694    
    77.00  0.37626    
    78.00  0.36612    
    79.00  0.35649    
    80.00  0.34735    
    81.00  0.33868    
    82.00  0.33046    
    83.00  0.32267    
    84.00  0.31529    
    85.00  0.30831    
    86.00  0.30170    
    87.00  0.29546    
    88.00  0.28957    
    89.00  0.28401    
    90.00  0.27878    
    91.00  0.27385    
    92.00  0.26923    
    93.00  0.26489    
    94.00  0.26084    
    95.00  0.25705    
    96.00  0.25352    
    97.00  0.25024    
    98.00  0.24720    
    99.00  0.24440    
   100.00  0.24183    
   101.00  0.23948    
   102.00  0.23735    
   103.00  0.23543    
   104.00  0.23371    
   105.00  0.23220    
   106.00  0.23088    
   107.00  0.22975    
   108.00  0.22881    
   109.00  0.22806    
   110.00  0.22749    
   111.00  0.22710    
   112.00  0.22690    
   113.00  0.22687    
   114.00  0.22702    
   115.00  0.22734    
   116.00  0.22785    
   117.00  0.22853    
   118.00  0.22940    
   119.00  0.23045    
   120.00  0.23168    
   121.00  0.23311    
   122.00  0.23472    
   123.00  0.23654    
   124.00  0.23856    
   125.00  0.24079    
   126.00  0.24325    
   127.00  0.24593    
   128.00  0.24885    
   129.00  0.25202    
   130.00  0.25544    
   131.00  0.25914    
   132.00  0.26313    
   133.00  0.26742    
   134.00  0.27202    
   135.00  0.27695    
   136.00  0.28224    
   137.00  0.28789    
   138.00  0.29393    
   139.00  0.30037    
   140.00  0.30723    
   141.00  0.31454    
   142.00  0.32232    
   143.00  0.33058    
   144.00  0.33936    
   145.00  0.34867    
   146.00  0.35854    
   147.00  0.36901    
   148.00  0.38011    
   149.00  0.39188    
   150.00  0.40436    
   151.00  0.41759    
   152.00  0.43162    
   153.00  0.44648    
   154.00  0.46217    
   155.00  0.47868    
   156.00  0.49590    
   157.00  0.51367    
   158.00  0.53168    
   159.00  0.54946    
   160.00  0.56634    
   161.00  0.58144    
   162.00  0.59366    
   163.00  0.60173    
   164.00  0.60435    
   165.00  0.60030    
   166.00  0.58873    
   167.00  0.56941    
   168.00  0.54303    
   169.00  0.51136    
   170.00  0.47727    
   171.00  0.44452    
   172.00  0.41733    
   173.00  0.39968    
   174.00  0.39452    
   175.00  0.40285    
   176.00  0.42307    
   177.00  0.45070    
   178.00  0.47887    
   179.00  0.49993    
   180.00  0.50773    
 |--------|------------|
0.690000     micron = Wavelength
0.122578     = Extinction efficiency (Q)
0.113685     = Scattering efficiency (Qs)
0.889339E-02 = Absorption efficiency (Qa)
 26.6861     = Lidar ratio
0.747899E-02 micron^2 = <b> = Average surface area per particle
0.916761E-03 microns^2 = Extinction cross section (C)
0.850248E-03 microns^2 = Scattering cross section (Cs)
0.665136E-04 microns^2 = Absorption cross section (Ca)
 |----------------------------------------------------|
 | COMMENTAIRES:                                      |
 |----------------------------------------------------|
 |   -Cross section / <b> should = efficiency         |
 |    is independant of the normalisation of dN/dx    |
 |   -The integral of the phase fct / 4 pi over all   |
 |    directions (solid angle) = 1.                   |
 |   -The volume coefficient (k) is equal to C * N    |
 |      = cross section * Number density              |
 |      typical units: [um^2]*[particles/cm^3] =      |
 |      [10^-3 km-1]                                  |
 |      N = M/(d*4/3*pi*r^3) where d is the density   |
 |      of particle, M is the mass per unit volume    |
 |      and 4/3*pi*r^3 is the average volume  of a    |
 |      particle.                                     |
 |      typical units:  M -> [ug/m^3], d -> [g/cm^3]  |
 |                      r -> [um]                     |
 |      Lidar ratio= 4 pi Qe / phase_fct(180)*Qs      |
 |----------------------------------------------------|
