 |--------|------------|
 | ANGLE  |  PHASE FCT |
 |--------|------------|
     0.00   33.219    
     1.00   32.973    
     2.00   32.252    
     3.00   31.107    
     4.00   29.614    
     5.00   27.860    
     6.00   25.935    
     7.00   23.925    
     8.00   21.900    
     9.00   19.921    
    10.00   18.028    
    11.00   16.253    
    12.00   14.613    
    13.00   13.117    
    14.00   11.765    
    15.00   10.553    
    16.00   9.4742    
    17.00   8.5184    
    18.00   7.6747    
    19.00   6.9318    
    20.00   6.2787    
    21.00   5.7047    
    22.00   5.2002    
    23.00   4.7561    
    24.00   4.3646    
    25.00   4.0185    
    26.00   3.7116    
    27.00   3.4385    
    28.00   3.1946    
    29.00   2.9760    
    30.00   2.7790    
    31.00   2.6009    
    32.00   2.4392    
    33.00   2.2918    
    34.00   2.1568    
    35.00   2.0329    
    36.00   1.9186    
    37.00   1.8130    
    38.00   1.7151    
    39.00   1.6241    
    40.00   1.5393    
    41.00   1.4601    
    42.00   1.3860    
    43.00   1.3167    
    44.00   1.2516    
    45.00   1.1905    
    46.00   1.1330    
    47.00   1.0789    
    48.00   1.0279    
    49.00  0.97985    
    50.00  0.93453    
    51.00  0.89176    
    52.00  0.85136    
    53.00  0.81320    
    54.00  0.77714    
    55.00  0.74304    
    56.00  0.71079    
    57.00  0.68029    
    58.00  0.65142    
    59.00  0.62409    
    60.00  0.59822    
    61.00  0.57372    
    62.00  0.55052    
    63.00  0.52853    
    64.00  0.50770    
    65.00  0.48796    
    66.00  0.46924    
    67.00  0.45150    
    68.00  0.43468    
    69.00  0.41873    
    70.00  0.40360    
    71.00  0.38925    
    72.00  0.37563    
    73.00  0.36272    
    74.00  0.35047    
    75.00  0.33885    
    76.00  0.32782    
    77.00  0.31736    
    78.00  0.30744    
    79.00  0.29802    
    80.00  0.28910    
    81.00  0.28063    
    82.00  0.27261    
    83.00  0.26500    
    84.00  0.25779    
    85.00  0.25096    
    86.00  0.24450    
    87.00  0.23838    
    88.00  0.23259    
    89.00  0.22712    
    90.00  0.22196    
    91.00  0.21708    
    92.00  0.21248    
    93.00  0.20815    
    94.00  0.20408    
    95.00  0.20025    
    96.00  0.19667    
    97.00  0.19331    
    98.00  0.19017    
    99.00  0.18725    
   100.00  0.18453    
   101.00  0.18201    
   102.00  0.17969    
   103.00  0.17756    
   104.00  0.17561    
   105.00  0.17384    
   106.00  0.17225    
   107.00  0.17082    
   108.00  0.16957    
   109.00  0.16848    
   110.00  0.16755    
   111.00  0.16678    
   112.00  0.16617    
   113.00  0.16572    
   114.00  0.16543    
   115.00  0.16530    
   116.00  0.16532    
   117.00  0.16550    
   118.00  0.16584    
   119.00  0.16635    
   120.00  0.16702    
   121.00  0.16786    
   122.00  0.16887    
   123.00  0.17007    
   124.00  0.17144    
   125.00  0.17301    
   126.00  0.17478    
   127.00  0.17675    
   128.00  0.17895    
   129.00  0.18138    
   130.00  0.18405    
   131.00  0.18698    
   132.00  0.19019    
   133.00  0.19369    
   134.00  0.19751    
   135.00  0.20166    
   136.00  0.20618    
   137.00  0.21108    
   138.00  0.21641    
   139.00  0.22218    
   140.00  0.22843    
   141.00  0.23520    
   142.00  0.24251    
   143.00  0.25041    
   144.00  0.25893    
   145.00  0.26808    
   146.00  0.27790    
   147.00  0.28839    
   148.00  0.29955    
   149.00  0.31135    
   150.00  0.32374    
   151.00  0.33663    
   152.00  0.34989    
   153.00  0.36334    
   154.00  0.37673    
   155.00  0.38978    
   156.00  0.40209    
   157.00  0.41325    
   158.00  0.42275    
   159.00  0.43010    
   160.00  0.43477    
   161.00  0.43632    
   162.00  0.43439    
   163.00  0.42881    
   164.00  0.41967    
   165.00  0.40738    
   166.00  0.39267    
   167.00  0.37666    
   168.00  0.36074    
   169.00  0.34654    
   170.00  0.33569    
   171.00  0.32967    
   172.00  0.32955    
   173.00  0.33575    
   174.00  0.34794    
   175.00  0.36486    
   176.00  0.38445    
   177.00  0.40407    
   178.00  0.42081    
   179.00  0.43208    
   180.00  0.43606    
 |--------|------------|
0.640000     micron = Wavelength
0.112716     = Extinction efficiency (Q)
0.104416     = Scattering efficiency (Qs)
0.829943E-02 = Absorption efficiency (Qa)
 31.1086     = Lidar ratio
0.336362E-02 micron^2 = <b> = Average surface area per particle
0.379133E-03 microns^2 = Extinction cross section (C)
0.351217E-03 microns^2 = Scattering cross section (Cs)
0.279161E-04 microns^2 = Absorption cross section (Ca)
 |----------------------------------------------------|
 | COMMENTAIRES:                                      |
 |----------------------------------------------------|
 |   -Cross section / <b> should = efficiency         |
 |    is independant of the normalisation of dN/dx    |
 |   -The integral of the phase fct / 4 pi over all   |
 |    directions (solid angle) = 1.                   |
 |   -The volume coefficient (k) is equal to C * N    |
 |      = cross section * Number density              |
 |      typical units: [um^2]*[particles/cm^3] =      |
 |      [10^-3 km-1]                                  |
 |      N = M/(d*4/3*pi*r^3) where d is the density   |
 |      of particle, M is the mass per unit volume    |
 |      and 4/3*pi*r^3 is the average volume  of a    |
 |      particle.                                     |
 |      typical units:  M -> [ug/m^3], d -> [g/cm^3]  |
 |                      r -> [um]                     |
 |      Lidar ratio= 4 pi Qe / phase_fct(180)*Qs      |
 |----------------------------------------------------|
