 |--------|------------|
 | ANGLE  |  PHASE FCT |
 |--------|------------|
     0.00   44.797    
     1.00   44.134    
     2.00   42.234    
     3.00   39.335    
     4.00   35.762    
     5.00   31.846    
     6.00   27.877    
     7.00   24.069    
     8.00   20.566    
     9.00   17.445    
    10.00   14.733    
    11.00   12.424    
    12.00   10.489    
    13.00   8.8859    
    14.00   7.5713    
    15.00   6.5006    
    16.00   5.6326    
    17.00   4.9307    
    18.00   4.3637    
    19.00   3.9051    
    20.00   3.5331    
    21.00   3.2300    
    22.00   2.9814    
    23.00   2.7758    
    24.00   2.6042    
    25.00   2.4592    
    26.00   2.3353    
    27.00   2.2278    
    28.00   2.1333    
    29.00   2.0491    
    30.00   1.9730    
    31.00   1.9034    
    32.00   1.8390    
    33.00   1.7789    
    34.00   1.7223    
    35.00   1.6686    
    36.00   1.6174    
    37.00   1.5684    
    38.00   1.5214    
    39.00   1.4760    
    40.00   1.4323    
    41.00   1.3900    
    42.00   1.3491    
    43.00   1.3095    
    44.00   1.2711    
    45.00   1.2339    
    46.00   1.1979    
    47.00   1.1630    
    48.00   1.1291    
    49.00   1.0963    
    50.00   1.0645    
    51.00   1.0337    
    52.00   1.0038    
    53.00  0.97493    
    54.00  0.94694    
    55.00  0.91982    
    56.00  0.89358    
    57.00  0.86818    
    58.00  0.84360    
    59.00  0.81983    
    60.00  0.79684    
    61.00  0.77462    
    62.00  0.75314    
    63.00  0.73239    
    64.00  0.71234    
    65.00  0.69299    
    66.00  0.67431    
    67.00  0.65628    
    68.00  0.63889    
    69.00  0.62213    
    70.00  0.60597    
    71.00  0.59041    
    72.00  0.57542    
    73.00  0.56099    
    74.00  0.54712    
    75.00  0.53378    
    76.00  0.52096    
    77.00  0.50865    
    78.00  0.49684    
    79.00  0.48551    
    80.00  0.47466    
    81.00  0.46427    
    82.00  0.45433    
    83.00  0.44483    
    84.00  0.43576    
    85.00  0.42710    
    86.00  0.41886    
    87.00  0.41101    
    88.00  0.40356    
    89.00  0.39648    
    90.00  0.38978    
    91.00  0.38343    
    92.00  0.37744    
    93.00  0.37180    
    94.00  0.36648    
    95.00  0.36150    
    96.00  0.35684    
    97.00  0.35248    
    98.00  0.34843    
    99.00  0.34467    
   100.00  0.34121    
   101.00  0.33802    
   102.00  0.33510    
   103.00  0.33246    
   104.00  0.33007    
   105.00  0.32793    
   106.00  0.32604    
   107.00  0.32439    
   108.00  0.32297    
   109.00  0.32178    
   110.00  0.32081    
   111.00  0.32005    
   112.00  0.31951    
   113.00  0.31918    
   114.00  0.31904    
   115.00  0.31910    
   116.00  0.31936    
   117.00  0.31980    
   118.00  0.32044    
   119.00  0.32125    
   120.00  0.32225    
   121.00  0.32342    
   122.00  0.32478    
   123.00  0.32632    
   124.00  0.32803    
   125.00  0.32992    
   126.00  0.33200    
   127.00  0.33426    
   128.00  0.33672    
   129.00  0.33938    
   130.00  0.34224    
   131.00  0.34533    
   132.00  0.34865    
   133.00  0.35222    
   134.00  0.35607    
   135.00  0.36022    
   136.00  0.36470    
   137.00  0.36955    
   138.00  0.37482    
   139.00  0.38055    
   140.00  0.38682    
   141.00  0.39370    
   142.00  0.40126    
   143.00  0.40959    
   144.00  0.41881    
   145.00  0.42900    
   146.00  0.44028    
   147.00  0.45275    
   148.00  0.46650    
   149.00  0.48159    
   150.00  0.49807    
   151.00  0.51592    
   152.00  0.53506    
   153.00  0.55531    
   154.00  0.57641    
   155.00  0.59798    
   156.00  0.61951    
   157.00  0.64041    
   158.00  0.65999    
   159.00  0.67756    
   160.00  0.69251    
   161.00  0.70439    
   162.00  0.71305    
   163.00  0.71872    
   164.00  0.72206    
   165.00  0.72414    
   166.00  0.72641    
   167.00  0.73054    
   168.00  0.73834    
   169.00  0.75161    
   170.00  0.77204    
   171.00  0.80103    
   172.00  0.83958    
   173.00  0.88791    
   174.00  0.94516    
   175.00   1.0089    
   176.00   1.0751    
   177.00   1.1377    
   178.00   1.1898    
   179.00   1.2245    
   180.00   1.2367    
 |--------|------------|
0.440000     micron = Wavelength
0.127877     = Extinction efficiency (Q)
0.112472     = Scattering efficiency (Qs)
0.154051E-01 = Absorption efficiency (Qa)
 11.5527     = Lidar ratio
0.302566E-02 micron^2 = <b> = Average surface area per particle
0.386912E-03 microns^2 = Extinction cross section (C)
0.340301E-03 microns^2 = Scattering cross section (Cs)
0.466106E-04 microns^2 = Absorption cross section (Ca)
 |----------------------------------------------------|
 | COMMENTAIRES:                                      |
 |----------------------------------------------------|
 |   -Cross section / <b> should = efficiency         |
 |    is independant of the normalisation of dN/dx    |
 |   -The integral of the phase fct / 4 pi over all   |
 |    directions (solid angle) = 1.                   |
 |   -The volume coefficient (k) is equal to C * N    |
 |      = cross section * Number density              |
 |      typical units: [um^2]*[particles/cm^3] =      |
 |      [10^-3 km-1]                                  |
 |      N = M/(d*4/3*pi*r^3) where d is the density   |
 |      of particle, M is the mass per unit volume    |
 |      and 4/3*pi*r^3 is the average volume  of a    |
 |      particle.                                     |
 |      typical units:  M -> [ug/m^3], d -> [g/cm^3]  |
 |                      r -> [um]                     |
 |      Lidar ratio= 4 pi Qe / phase_fct(180)*Qs      |
 |----------------------------------------------------|
