 |--------|------------|
 | ANGLE  |  PHASE FCT |
 |--------|------------|
     0.00   128.64    
     1.00   120.71    
     2.00   100.29    
     3.00   75.151    
     4.00   52.378    
     5.00   35.288    
     6.00   23.778    
     7.00   16.388    
     8.00   11.747    
     9.00   8.8851    
    10.00   7.1212    
    11.00   6.0030    
    12.00   5.2669    
    13.00   4.7632    
    14.00   4.3999    
    15.00   4.1225    
    16.00   3.9010    
    17.00   3.7156    
    18.00   3.5536    
    19.00   3.4100    
    20.00   3.2815    
    21.00   3.1637    
    22.00   3.0531    
    23.00   2.9491    
    24.00   2.8518    
    25.00   2.7601    
    26.00   2.6724    
    27.00   2.5880    
    28.00   2.5073    
    29.00   2.4303    
    30.00   2.3562    
    31.00   2.2842    
    32.00   2.2147    
    33.00   2.1478    
    34.00   2.0832    
    35.00   2.0204    
    36.00   1.9593    
    37.00   1.9003    
    38.00   1.8432    
    39.00   1.7876    
    40.00   1.7335    
    41.00   1.6811    
    42.00   1.6303    
    43.00   1.5808    
    44.00   1.5326    
    45.00   1.4859    
    46.00   1.4407    
    47.00   1.3965    
    48.00   1.3536    
    49.00   1.3120    
    50.00   1.2716    
    51.00   1.2323    
    52.00   1.1941    
    53.00   1.1572    
    54.00   1.1213    
    55.00   1.0864    
    56.00   1.0526    
    57.00   1.0198    
    58.00  0.98812    
    59.00  0.95733    
    60.00  0.92748    
    61.00  0.89864    
    62.00  0.87074    
    63.00  0.84371    
    64.00  0.81757    
    65.00  0.79234    
    66.00  0.76797    
    67.00  0.74441    
    68.00  0.72168    
    69.00  0.69978    
    70.00  0.67867    
    71.00  0.65832    
    72.00  0.63873    
    73.00  0.61989    
    74.00  0.60179    
    75.00  0.58438    
    76.00  0.56767    
    77.00  0.55164    
    78.00  0.53629    
    79.00  0.52156    
    80.00  0.50746    
    81.00  0.49399    
    82.00  0.48112    
    83.00  0.46881    
    84.00  0.45707    
    85.00  0.44589    
    86.00  0.43522    
    87.00  0.42507    
    88.00  0.41541    
    89.00  0.40623    
    90.00  0.39751    
    91.00  0.38924    
    92.00  0.38139    
    93.00  0.37395    
    94.00  0.36691    
    95.00  0.36026    
    96.00  0.35396    
    97.00  0.34802    
    98.00  0.34242    
    99.00  0.33715    
   100.00  0.33219    
   101.00  0.32754    
   102.00  0.32319    
   103.00  0.31912    
   104.00  0.31531    
   105.00  0.31178    
   106.00  0.30850    
   107.00  0.30546    
   108.00  0.30267    
   109.00  0.30011    
   110.00  0.29777    
   111.00  0.29565    
   112.00  0.29374    
   113.00  0.29203    
   114.00  0.29053    
   115.00  0.28922    
   116.00  0.28809    
   117.00  0.28716    
   118.00  0.28640    
   119.00  0.28582    
   120.00  0.28542    
   121.00  0.28518    
   122.00  0.28512    
   123.00  0.28523    
   124.00  0.28550    
   125.00  0.28595    
   126.00  0.28658    
   127.00  0.28738    
   128.00  0.28837    
   129.00  0.28956    
   130.00  0.29095    
   131.00  0.29256    
   132.00  0.29440    
   133.00  0.29649    
   134.00  0.29885    
   135.00  0.30151    
   136.00  0.30449    
   137.00  0.30782    
   138.00  0.31153    
   139.00  0.31565    
   140.00  0.32021    
   141.00  0.32523    
   142.00  0.33075    
   143.00  0.33677    
   144.00  0.34328    
   145.00  0.35029    
   146.00  0.35775    
   147.00  0.36559    
   148.00  0.37373    
   149.00  0.38205    
   150.00  0.39043    
   151.00  0.39864    
   152.00  0.40650    
   153.00  0.41382    
   154.00  0.42039    
   155.00  0.42601    
   156.00  0.43065    
   157.00  0.43434    
   158.00  0.43713    
   159.00  0.43930    
   160.00  0.44133    
   161.00  0.44366    
   162.00  0.44682    
   163.00  0.45152    
   164.00  0.45824    
   165.00  0.46692    
   166.00  0.47724    
   167.00  0.48868    
   168.00  0.50021    
   169.00  0.51108    
   170.00  0.52149    
   171.00  0.53112    
   172.00  0.53769    
   173.00  0.53826    
   174.00  0.53083    
   175.00  0.51496    
   176.00  0.49582    
   177.00  0.48745    
   178.00  0.50184    
   179.00  0.52998    
   180.00  0.54452    
 |--------|------------|
0.436000     micron = Wavelength
0.281595     = Extinction efficiency (Q)
0.262949     = Scattering efficiency (Qs)
0.186453E-01 = Absorption efficiency (Qa)
 24.7143     = Lidar ratio
0.956653E-02 micron^2 = <b> = Average surface area per particle
0.269388E-02 microns^2 = Extinction cross section (C)
0.251551E-02 microns^2 = Scattering cross section (Cs)
0.178371E-03 microns^2 = Absorption cross section (Ca)
 |----------------------------------------------------|
 | COMMENTAIRES:                                      |
 |----------------------------------------------------|
 |   -Cross section / <b> should = efficiency         |
 |    is independant of the normalisation of dN/dx    |
 |   -The integral of the phase fct / 4 pi over all   |
 |    directions (solid angle) = 1.                   |
 |   -The volume coefficient (k) is equal to C * N    |
 |      = cross section * Number density              |
 |      typical units: [um^2]*[particles/cm^3] =      |
 |      [10^-3 km-1]                                  |
 |      N = M/(d*4/3*pi*r^3) where d is the density   |
 |      of particle, M is the mass per unit volume    |
 |      and 4/3*pi*r^3 is the average volume  of a    |
 |      particle.                                     |
 |      typical units:  M -> [ug/m^3], d -> [g/cm^3]  |
 |                      r -> [um]                     |
 |      Lidar ratio= 4 pi Qe / phase_fct(180)*Qs      |
 |----------------------------------------------------|
