 |--------|------------|
 | ANGLE  |  PHASE FCT |
 |--------|------------|
     0.00   42.797    
     1.00   42.297    
     2.00   40.848    
     3.00   38.604    
     4.00   35.775    
     5.00   32.590    
     6.00   29.261    
     7.00   25.962    
     8.00   22.821    
     9.00   19.922    
    10.00   17.311    
    11.00   15.005    
    12.00   12.999    
    13.00   11.276    
    14.00   9.8087    
    15.00   8.5691    
    16.00   7.5268    
    17.00   6.6534    
    18.00   5.9224    
    19.00   5.3106    
    20.00   4.7976    
    21.00   4.3659    
    22.00   4.0009    
    23.00   3.6902    
    24.00   3.4238    
    25.00   3.1933    
    26.00   2.9921    
    27.00   2.8146    
    28.00   2.6565    
    29.00   2.5144    
    30.00   2.3854    
    31.00   2.2674    
    32.00   2.1586    
    33.00   2.0577    
    34.00   1.9636    
    35.00   1.8754    
    36.00   1.7923    
    37.00   1.7140    
    38.00   1.6398    
    39.00   1.5696    
    40.00   1.5028    
    41.00   1.4394    
    42.00   1.3790    
    43.00   1.3215    
    44.00   1.2668    
    45.00   1.2146    
    46.00   1.1649    
    47.00   1.1175    
    48.00   1.0723    
    49.00   1.0292    
    50.00  0.98814    
    51.00  0.94900    
    52.00  0.91169    
    53.00  0.87613    
    54.00  0.84224    
    55.00  0.80994    
    56.00  0.77916    
    57.00  0.74982    
    58.00  0.72187    
    59.00  0.69523    
    60.00  0.66985    
    61.00  0.64565    
    62.00  0.62261    
    63.00  0.60065    
    64.00  0.57972    
    65.00  0.55978    
    66.00  0.54078    
    67.00  0.52268    
    68.00  0.50543    
    69.00  0.48900    
    70.00  0.47335    
    71.00  0.45844    
    72.00  0.44424    
    73.00  0.43072    
    74.00  0.41784    
    75.00  0.40558    
    76.00  0.39391    
    77.00  0.38280    
    78.00  0.37224    
    79.00  0.36219    
    80.00  0.35263    
    81.00  0.34354    
    82.00  0.33492    
    83.00  0.32672    
    84.00  0.31894    
    85.00  0.31157    
    86.00  0.30457    
    87.00  0.29795    
    88.00  0.29169    
    89.00  0.28576    
    90.00  0.28017    
    91.00  0.27489    
    92.00  0.26992    
    93.00  0.26524    
    94.00  0.26085    
    95.00  0.25674    
    96.00  0.25290    
    97.00  0.24931    
    98.00  0.24597    
    99.00  0.24288    
   100.00  0.24002    
   101.00  0.23739    
   102.00  0.23498    
   103.00  0.23279    
   104.00  0.23081    
   105.00  0.22904    
   106.00  0.22747    
   107.00  0.22610    
   108.00  0.22492    
   109.00  0.22393    
   110.00  0.22313    
   111.00  0.22251    
   112.00  0.22208    
   113.00  0.22182    
   114.00  0.22174    
   115.00  0.22184    
   116.00  0.22212    
   117.00  0.22258    
   118.00  0.22322    
   119.00  0.22403    
   120.00  0.22503    
   121.00  0.22621    
   122.00  0.22758    
   123.00  0.22915    
   124.00  0.23091    
   125.00  0.23288    
   126.00  0.23506    
   127.00  0.23746    
   128.00  0.24009    
   129.00  0.24296    
   130.00  0.24609    
   131.00  0.24949    
   132.00  0.25317    
   133.00  0.25717    
   134.00  0.26148    
   135.00  0.26615    
   136.00  0.27120    
   137.00  0.27665    
   138.00  0.28255    
   139.00  0.28893    
   140.00  0.29583    
   141.00  0.30331    
   142.00  0.31140    
   143.00  0.32018    
   144.00  0.32970    
   145.00  0.34002    
   146.00  0.35122    
   147.00  0.36337    
   148.00  0.37652    
   149.00  0.39075    
   150.00  0.40608    
   151.00  0.42252    
   152.00  0.44005    
   153.00  0.45859    
   154.00  0.47796    
   155.00  0.49791    
   156.00  0.51805    
   157.00  0.53788    
   158.00  0.55672    
   159.00  0.57378    
   160.00  0.58813    
   161.00  0.59878    
   162.00  0.60476    
   163.00  0.60522    
   164.00  0.59958    
   165.00  0.58769    
   166.00  0.57000    
   167.00  0.54760    
   168.00  0.52229    
   169.00  0.49648    
   170.00  0.47296    
   171.00  0.45466    
   172.00  0.44418    
   173.00  0.44339    
   174.00  0.45294    
   175.00  0.47194    
   176.00  0.49775    
   177.00  0.52615    
   178.00  0.55195    
   179.00  0.57000    
   180.00  0.57648    
 |--------|------------|
0.520000     micron = Wavelength
0.114260     = Extinction efficiency (Q)
0.104863     = Scattering efficiency (Qs)
0.939701E-02 = Absorption efficiency (Qa)
 23.7517     = Lidar ratio
0.336361E-02 micron^2 = <b> = Average surface area per particle
0.384326E-03 microns^2 = Extinction cross section (C)
0.352718E-03 microns^2 = Scattering cross section (Cs)
0.316079E-04 microns^2 = Absorption cross section (Ca)
 |----------------------------------------------------|
 | COMMENTAIRES:                                      |
 |----------------------------------------------------|
 |   -Cross section / <b> should = efficiency         |
 |    is independant of the normalisation of dN/dx    |
 |   -The integral of the phase fct / 4 pi over all   |
 |    directions (solid angle) = 1.                   |
 |   -The volume coefficient (k) is equal to C * N    |
 |      = cross section * Number density              |
 |      typical units: [um^2]*[particles/cm^3] =      |
 |      [10^-3 km-1]                                  |
 |      N = M/(d*4/3*pi*r^3) where d is the density   |
 |      of particle, M is the mass per unit volume    |
 |      and 4/3*pi*r^3 is the average volume  of a    |
 |      particle.                                     |
 |      typical units:  M -> [ug/m^3], d -> [g/cm^3]  |
 |                      r -> [um]                     |
 |      Lidar ratio= 4 pi Qe / phase_fct(180)*Qs      |
 |----------------------------------------------------|
