 |--------|------------|
 | ANGLE  |  PHASE FCT |
 |--------|------------|
     0.00   60.669    
     1.00   59.416    
     2.00   55.885    
     3.00   50.672    
     4.00   44.525    
     5.00   38.139    
     6.00   32.033    
     7.00   26.523    
     8.00   21.759    
     9.00   17.770    
    10.00   14.511    
    11.00   11.896    
    12.00   9.8262    
    13.00   8.2033    
    14.00   6.9385    
    15.00   5.9558    
    16.00   5.1923    
    17.00   4.5975    
    18.00   4.1313    
    19.00   3.7628    
    20.00   3.4679    
    21.00   3.2284    
    22.00   3.0306    
    23.00   2.8640    
    24.00   2.7209    
    25.00   2.5956    
    26.00   2.4838    
    27.00   2.3825    
    28.00   2.2893    
    29.00   2.2025    
    30.00   2.1211    
    31.00   2.0442    
    32.00   1.9710    
    33.00   1.9011    
    34.00   1.8342    
    35.00   1.7699    
    36.00   1.7082    
    37.00   1.6489    
    38.00   1.5917    
    39.00   1.5366    
    40.00   1.4836    
    41.00   1.4325    
    42.00   1.3833    
    43.00   1.3359    
    44.00   1.2902    
    45.00   1.2463    
    46.00   1.2039    
    47.00   1.1632    
    48.00   1.1239    
    49.00   1.0862    
    50.00   1.0499    
    51.00   1.0150    
    52.00  0.98139    
    53.00  0.94910    
    54.00  0.91805    
    55.00  0.88821    
    56.00  0.85952    
    57.00  0.83197    
    58.00  0.80550    
    59.00  0.78006    
    60.00  0.75564    
    61.00  0.73219    
    62.00  0.70968    
    63.00  0.68807    
    64.00  0.66733    
    65.00  0.64744    
    66.00  0.62835    
    67.00  0.61005    
    68.00  0.59250    
    69.00  0.57568    
    70.00  0.55956    
    71.00  0.54412    
    72.00  0.52934    
    73.00  0.51519    
    74.00  0.50165    
    75.00  0.48869    
    76.00  0.47630    
    77.00  0.46447    
    78.00  0.45316    
    79.00  0.44236    
    80.00  0.43206    
    81.00  0.42224    
    82.00  0.41288    
    83.00  0.40396    
    84.00  0.39548    
    85.00  0.38742    
    86.00  0.37976    
    87.00  0.37249    
    88.00  0.36560    
    89.00  0.35908    
    90.00  0.35291    
    91.00  0.34709    
    92.00  0.34161    
    93.00  0.33645    
    94.00  0.33160    
    95.00  0.32707    
    96.00  0.32283    
    97.00  0.31887    
    98.00  0.31520    
    99.00  0.31180    
   100.00  0.30867    
   101.00  0.30579    
   102.00  0.30317    
   103.00  0.30079    
   104.00  0.29865    
   105.00  0.29674    
   106.00  0.29506    
   107.00  0.29360    
   108.00  0.29235    
   109.00  0.29132    
   110.00  0.29050    
   111.00  0.28988    
   112.00  0.28946    
   113.00  0.28924    
   114.00  0.28921    
   115.00  0.28937    
   116.00  0.28973    
   117.00  0.29027    
   118.00  0.29100    
   119.00  0.29191    
   120.00  0.29302    
   121.00  0.29431    
   122.00  0.29579    
   123.00  0.29747    
   124.00  0.29934    
   125.00  0.30142    
   126.00  0.30371    
   127.00  0.30621    
   128.00  0.30894    
   129.00  0.31190    
   130.00  0.31511    
   131.00  0.31857    
   132.00  0.32231    
   133.00  0.32633    
   134.00  0.33066    
   135.00  0.33531    
   136.00  0.34032    
   137.00  0.34569    
   138.00  0.35147    
   139.00  0.35767    
   140.00  0.36432    
   141.00  0.37146    
   142.00  0.37912    
   143.00  0.38734    
   144.00  0.39617    
   145.00  0.40564    
   146.00  0.41581    
   147.00  0.42673    
   148.00  0.43848    
   149.00  0.45112    
   150.00  0.46474    
   151.00  0.47941    
   152.00  0.49524    
   153.00  0.51229    
   154.00  0.53061    
   155.00  0.55023    
   156.00  0.57108    
   157.00  0.59299    
   158.00  0.61565    
   159.00  0.63853    
   160.00  0.66086    
   161.00  0.68163    
   162.00  0.69956    
   163.00  0.71315    
   164.00  0.72088    
   165.00  0.72138    
   166.00  0.71369    
   167.00  0.69759    
   168.00  0.67376    
   169.00  0.64397    
   170.00  0.61095    
   171.00  0.57822    
   172.00  0.54981    
   173.00  0.52982    
   174.00  0.52179    
   175.00  0.52777    
   176.00  0.54729    
   177.00  0.57647    
   178.00  0.60790    
   179.00  0.63225    
   180.00  0.64144    
 |--------|------------|
0.470000     micron = Wavelength
0.136627     = Extinction efficiency (Q)
0.125059     = Scattering efficiency (Qs)
0.115677E-01 = Absorption efficiency (Qa)
 21.4031     = Lidar ratio
0.446405E-02 micron^2 = <b> = Average surface area per particle
0.609910E-03 microns^2 = Extinction cross section (C)
0.558271E-03 microns^2 = Scattering cross section (Cs)
0.516387E-04 microns^2 = Absorption cross section (Ca)
 |----------------------------------------------------|
 | COMMENTAIRES:                                      |
 |----------------------------------------------------|
 |   -Cross section / <b> should = efficiency         |
 |    is independant of the normalisation of dN/dx    |
 |   -The integral of the phase fct / 4 pi over all   |
 |    directions (solid angle) = 1.                   |
 |   -The volume coefficient (k) is equal to C * N    |
 |      = cross section * Number density              |
 |      typical units: [um^2]*[particles/cm^3] =      |
 |      [10^-3 km-1]                                  |
 |      N = M/(d*4/3*pi*r^3) where d is the density   |
 |      of particle, M is the mass per unit volume    |
 |      and 4/3*pi*r^3 is the average volume  of a    |
 |      particle.                                     |
 |      typical units:  M -> [ug/m^3], d -> [g/cm^3]  |
 |                      r -> [um]                     |
 |      Lidar ratio= 4 pi Qe / phase_fct(180)*Qs      |
 |----------------------------------------------------|
