 |--------|------------|
 | ANGLE  |  PHASE FCT |
 |--------|------------|
     0.00   29.843    
     1.00   29.661    
     2.00   29.128    
     3.00   28.274    
     4.00   27.148    
     5.00   25.805    
     6.00   24.307    
     7.00   22.712    
     8.00   21.074    
     9.00   19.437    
    10.00   17.839    
    11.00   16.306    
    12.00   14.858    
    13.00   13.506    
    14.00   12.258    
    15.00   11.114    
    16.00   10.074    
    17.00   9.1329    
    18.00   8.2853    
    19.00   7.5246    
    20.00   6.8435    
    21.00   6.2347    
    22.00   5.6911    
    23.00   5.2058    
    24.00   4.7725    
    25.00   4.3853    
    26.00   4.0388    
    27.00   3.7283    
    28.00   3.4494    
    29.00   3.1984    
    30.00   2.9719    
    31.00   2.7670    
    32.00   2.5812    
    33.00   2.4121    
    34.00   2.2580    
    35.00   2.1170    
    36.00   1.9877    
    37.00   1.8689    
    38.00   1.7594    
    39.00   1.6583    
    40.00   1.5647    
    41.00   1.4779    
    42.00   1.3973    
    43.00   1.3223    
    44.00   1.2523    
    45.00   1.1870    
    46.00   1.1260    
    47.00   1.0688    
    48.00   1.0153    
    49.00  0.96510    
    50.00  0.91798    
    51.00  0.87370    
    52.00  0.83207    
    53.00  0.79291    
    54.00  0.75604    
    55.00  0.72130    
    56.00  0.68856    
    57.00  0.65769    
    58.00  0.62856    
    59.00  0.60106    
    60.00  0.57510    
    61.00  0.55058    
    62.00  0.52741    
    63.00  0.50550    
    64.00  0.48479    
    65.00  0.46520    
    66.00  0.44666    
    67.00  0.42913    
    68.00  0.41252    
    69.00  0.39681    
    70.00  0.38192    
    71.00  0.36782    
    72.00  0.35447    
    73.00  0.34181    
    74.00  0.32983    
    75.00  0.31846    
    76.00  0.30770    
    77.00  0.29749    
    78.00  0.28782    
    79.00  0.27866    
    80.00  0.26997    
    81.00  0.26174    
    82.00  0.25394    
    83.00  0.24656    
    84.00  0.23956    
    85.00  0.23293    
    86.00  0.22666    
    87.00  0.22072    
    88.00  0.21511    
    89.00  0.20981    
    90.00  0.20479    
    91.00  0.20006    
    92.00  0.19560    
    93.00  0.19139    
    94.00  0.18743    
    95.00  0.18371    
    96.00  0.18022    
    97.00  0.17694    
    98.00  0.17388    
    99.00  0.17102    
   100.00  0.16835    
   101.00  0.16588    
   102.00  0.16359    
   103.00  0.16148    
   104.00  0.15954    
   105.00  0.15778    
   106.00  0.15618    
   107.00  0.15474    
   108.00  0.15346    
   109.00  0.15234    
   110.00  0.15137    
   111.00  0.15055    
   112.00  0.14989    
   113.00  0.14937    
   114.00  0.14900    
   115.00  0.14879    
   116.00  0.14872    
   117.00  0.14881    
   118.00  0.14904    
   119.00  0.14944    
   120.00  0.14999    
   121.00  0.15070    
   122.00  0.15158    
   123.00  0.15263    
   124.00  0.15386    
   125.00  0.15527    
   126.00  0.15688    
   127.00  0.15868    
   128.00  0.16070    
   129.00  0.16294    
   130.00  0.16541    
   131.00  0.16813    
   132.00  0.17112    
   133.00  0.17438    
   134.00  0.17794    
   135.00  0.18182    
   136.00  0.18604    
   137.00  0.19062    
   138.00  0.19558    
   139.00  0.20094    
   140.00  0.20674    
   141.00  0.21299    
   142.00  0.21972    
   143.00  0.22693    
   144.00  0.23466    
   145.00  0.24290    
   146.00  0.25166    
   147.00  0.26092    
   148.00  0.27064    
   149.00  0.28079    
   150.00  0.29127    
   151.00  0.30200    
   152.00  0.31281    
   153.00  0.32354    
   154.00  0.33395    
   155.00  0.34377    
   156.00  0.35270    
   157.00  0.36038    
   158.00  0.36646    
   159.00  0.37058    
   160.00  0.37240    
   161.00  0.37168    
   162.00  0.36827    
   163.00  0.36218    
   164.00  0.35364    
   165.00  0.34312    
   166.00  0.33131    
   167.00  0.31916    
   168.00  0.30779    
   169.00  0.29841    
   170.00  0.29217    
   171.00  0.29004    
   172.00  0.29261    
   173.00  0.30001    
   174.00  0.31171    
   175.00  0.32661    
   176.00  0.34304    
   177.00  0.35897    
   178.00  0.37229    
   179.00  0.38114    
   180.00  0.38425    
 |--------|------------|
0.700000     micron = Wavelength
0.113296     = Extinction efficiency (Q)
0.105644     = Scattering efficiency (Qs)
0.765201E-02 = Absorption efficiency (Qa)
 35.0728     = Lidar ratio
0.336362E-02 micron^2 = <b> = Average surface area per particle
0.381086E-03 microns^2 = Extinction cross section (C)
0.355347E-03 microns^2 = Scattering cross section (Cs)
0.257385E-04 microns^2 = Absorption cross section (Ca)
 |----------------------------------------------------|
 | COMMENTAIRES:                                      |
 |----------------------------------------------------|
 |   -Cross section / <b> should = efficiency         |
 |    is independant of the normalisation of dN/dx    |
 |   -The integral of the phase fct / 4 pi over all   |
 |    directions (solid angle) = 1.                   |
 |   -The volume coefficient (k) is equal to C * N    |
 |      = cross section * Number density              |
 |      typical units: [um^2]*[particles/cm^3] =      |
 |      [10^-3 km-1]                                  |
 |      N = M/(d*4/3*pi*r^3) where d is the density   |
 |      of particle, M is the mass per unit volume    |
 |      and 4/3*pi*r^3 is the average volume  of a    |
 |      particle.                                     |
 |      typical units:  M -> [ug/m^3], d -> [g/cm^3]  |
 |                      r -> [um]                     |
 |      Lidar ratio= 4 pi Qe / phase_fct(180)*Qs      |
 |----------------------------------------------------|
