 |--------|------------|
 | ANGLE  |  PHASE FCT |
 |--------|------------|
     0.00   159.89    
     1.00   151.42    
     2.00   129.26    
     3.00   100.99    
     4.00   73.931    
     5.00   52.119    
     6.00   36.228    
     7.00   25.261    
     8.00   17.928    
     9.00   13.133    
    10.00   10.026    
    11.00   7.9968    
    12.00   6.6469    
    13.00   5.7269    
    14.00   5.0766    
    15.00   4.5978    
    16.00   4.2313    
    17.00   3.9385    
    18.00   3.6942    
    19.00   3.4845    
    20.00   3.3014    
    21.00   3.1381    
    22.00   2.9893    
    23.00   2.8522    
    24.00   2.7256    
    25.00   2.6083    
    26.00   2.4986    
    27.00   2.3952    
    28.00   2.2977    
    29.00   2.2059    
    30.00   2.1193    
    31.00   2.0370    
    32.00   1.9585    
    33.00   1.8841    
    34.00   1.8134    
    35.00   1.7458    
    36.00   1.6811    
    37.00   1.6193    
    38.00   1.5604    
    39.00   1.5039    
    40.00   1.4496    
    41.00   1.3977    
    42.00   1.3480    
    43.00   1.3002    
    44.00   1.2543    
    45.00   1.2102    
    46.00   1.1679    
    47.00   1.1273    
    48.00   1.0881    
    49.00   1.0505    
    50.00   1.0144    
    51.00  0.97968    
    52.00  0.94620    
    53.00  0.91404    
    54.00  0.88315    
    55.00  0.85342    
    56.00  0.82477    
    57.00  0.79725    
    58.00  0.77082    
    59.00  0.74537    
    60.00  0.72088    
    61.00  0.69736    
    62.00  0.67478    
    63.00  0.65306    
    64.00  0.63217    
    65.00  0.61213    
    66.00  0.59290    
    67.00  0.57443    
    68.00  0.55669    
    69.00  0.53970    
    70.00  0.52342    
    71.00  0.50780    
    72.00  0.49284    
    73.00  0.47853    
    74.00  0.46485    
    75.00  0.45175    
    76.00  0.43924    
    77.00  0.42731    
    78.00  0.41592    
    79.00  0.40506    
    80.00  0.39471    
    81.00  0.38487    
    82.00  0.37550    
    83.00  0.36660    
    84.00  0.35815    
    85.00  0.35013    
    86.00  0.34253    
    87.00  0.33532    
    88.00  0.32851    
    89.00  0.32206    
    90.00  0.31596    
    91.00  0.31021    
    92.00  0.30478    
    93.00  0.29966    
    94.00  0.29484    
    95.00  0.29031    
    96.00  0.28604    
    97.00  0.28204    
    98.00  0.27829    
    99.00  0.27478    
   100.00  0.27150    
   101.00  0.26844    
   102.00  0.26560    
   103.00  0.26296    
   104.00  0.26052    
   105.00  0.25827    
   106.00  0.25622    
   107.00  0.25434    
   108.00  0.25264    
   109.00  0.25111    
   110.00  0.24975    
   111.00  0.24856    
   112.00  0.24753    
   113.00  0.24667    
   114.00  0.24596    
   115.00  0.24541    
   116.00  0.24502    
   117.00  0.24479    
   118.00  0.24471    
   119.00  0.24480    
   120.00  0.24505    
   121.00  0.24547    
   122.00  0.24606    
   123.00  0.24682    
   124.00  0.24778    
   125.00  0.24893    
   126.00  0.25028    
   127.00  0.25186    
   128.00  0.25367    
   129.00  0.25573    
   130.00  0.25808    
   131.00  0.26072    
   132.00  0.26369    
   133.00  0.26702    
   134.00  0.27073    
   135.00  0.27488    
   136.00  0.27949    
   137.00  0.28460    
   138.00  0.29025    
   139.00  0.29649    
   140.00  0.30333    
   141.00  0.31081    
   142.00  0.31894    
   143.00  0.32772    
   144.00  0.33712    
   145.00  0.34711    
   146.00  0.35762    
   147.00  0.36854    
   148.00  0.37972    
   149.00  0.39100    
   150.00  0.40219    
   151.00  0.41303    
   152.00  0.42329    
   153.00  0.43276    
   154.00  0.44121    
   155.00  0.44850    
   156.00  0.45464    
   157.00  0.45976    
   158.00  0.46410    
   159.00  0.46814    
   160.00  0.47254    
   161.00  0.47800    
   162.00  0.48523    
   163.00  0.49500    
   164.00  0.50771    
   165.00  0.52302    
   166.00  0.53998    
   167.00  0.55708    
   168.00  0.57216    
   169.00  0.58332    
   170.00  0.58981    
   171.00  0.59126    
   172.00  0.58661    
   173.00  0.57513    
   174.00  0.55785    
   175.00  0.53868    
   176.00  0.52672    
   177.00  0.53550    
   178.00  0.57059    
   179.00  0.61466    
   180.00  0.63503    
 |--------|------------|
0.590000     micron = Wavelength
0.227755     = Extinction efficiency (Q)
0.209859     = Scattering efficiency (Qs)
0.178960E-01 = Absorption efficiency (Qa)
 21.4762     = Lidar ratio
0.116592E-01 micron^2 = <b> = Average surface area per particle
0.265545E-02 microns^2 = Extinction cross section (C)
0.244680E-02 microns^2 = Scattering cross section (Cs)
0.208653E-03 microns^2 = Absorption cross section (Ca)
 |----------------------------------------------------|
 | COMMENTAIRES:                                      |
 |----------------------------------------------------|
 |   -Cross section / <b> should = efficiency         |
 |    is independant of the normalisation of dN/dx    |
 |   -The integral of the phase fct / 4 pi over all   |
 |    directions (solid angle) = 1.                   |
 |   -The volume coefficient (k) is equal to C * N    |
 |      = cross section * Number density              |
 |      typical units: [um^2]*[particles/cm^3] =      |
 |      [10^-3 km-1]                                  |
 |      N = M/(d*4/3*pi*r^3) where d is the density   |
 |      of particle, M is the mass per unit volume    |
 |      and 4/3*pi*r^3 is the average volume  of a    |
 |      particle.                                     |
 |      typical units:  M -> [ug/m^3], d -> [g/cm^3]  |
 |                      r -> [um]                     |
 |      Lidar ratio= 4 pi Qe / phase_fct(180)*Qs      |
 |----------------------------------------------------|
