 |--------|------------|
 | ANGLE  |  PHASE FCT |
 |--------|------------|
     0.00   40.931    
     1.00   40.489    
     2.00   39.209    
     3.00   37.214    
     4.00   34.683    
     5.00   31.807    
     6.00   28.772    
     7.00   25.732    
     8.00   22.806    
     9.00   20.074    
    10.00   17.585    
    11.00   15.360    
    12.00   13.402    
    13.00   11.700    
    14.00   10.235    
    15.00   8.9829    
    16.00   7.9184    
    17.00   7.0167    
    18.00   6.2546    
    19.00   5.6106    
    20.00   5.0657    
    21.00   4.6036    
    22.00   4.2101    
    23.00   3.8733    
    24.00   3.5832    
    25.00   3.3315    
    26.00   3.1113    
    27.00   2.9171    
    28.00   2.7443    
    29.00   2.5892    
    30.00   2.4490    
    31.00   2.3211    
    32.00   2.2036    
    33.00   2.0952    
    34.00   1.9944    
    35.00   1.9004    
    36.00   1.8123    
    37.00   1.7295    
    38.00   1.6515    
    39.00   1.5778    
    40.00   1.5080    
    41.00   1.4419    
    42.00   1.3792    
    43.00   1.3197    
    44.00   1.2631    
    45.00   1.2093    
    46.00   1.1582    
    47.00   1.1096    
    48.00   1.0633    
    49.00   1.0193    
    50.00  0.97738    
    51.00  0.93751    
    52.00  0.89957    
    53.00  0.86346    
    54.00  0.82910    
    55.00  0.79641    
    56.00  0.76529    
    57.00  0.73568    
    58.00  0.70749    
    59.00  0.68068    
    60.00  0.65515    
    61.00  0.63085    
    62.00  0.60773    
    63.00  0.58573    
    64.00  0.56478    
    65.00  0.54485    
    66.00  0.52587    
    67.00  0.50781    
    68.00  0.49063    
    69.00  0.47427    
    70.00  0.45870    
    71.00  0.44388    
    72.00  0.42978    
    73.00  0.41636    
    74.00  0.40359    
    75.00  0.39145    
    76.00  0.37990    
    77.00  0.36891    
    78.00  0.35846    
    79.00  0.34853    
    80.00  0.33910    
    81.00  0.33013    
    82.00  0.32162    
    83.00  0.31353    
    84.00  0.30587    
    85.00  0.29860    
    86.00  0.29171    
    87.00  0.28519    
    88.00  0.27901    
    89.00  0.27318    
    90.00  0.26767    
    91.00  0.26247    
    92.00  0.25758    
    93.00  0.25297    
    94.00  0.24865    
    95.00  0.24459    
    96.00  0.24080    
    97.00  0.23726    
    98.00  0.23396    
    99.00  0.23090    
   100.00  0.22807    
   101.00  0.22546    
   102.00  0.22308    
   103.00  0.22090    
   104.00  0.21893    
   105.00  0.21716    
   106.00  0.21558    
   107.00  0.21420    
   108.00  0.21301    
   109.00  0.21200    
   110.00  0.21118    
   111.00  0.21053    
   112.00  0.21006    
   113.00  0.20977    
   114.00  0.20965    
   115.00  0.20971    
   116.00  0.20994    
   117.00  0.21035    
   118.00  0.21093    
   119.00  0.21169    
   120.00  0.21263    
   121.00  0.21375    
   122.00  0.21506    
   123.00  0.21656    
   124.00  0.21825    
   125.00  0.22015    
   126.00  0.22226    
   127.00  0.22459    
   128.00  0.22715    
   129.00  0.22995    
   130.00  0.23300    
   131.00  0.23633    
   132.00  0.23994    
   133.00  0.24385    
   134.00  0.24809    
   135.00  0.25269    
   136.00  0.25766    
   137.00  0.26305    
   138.00  0.26888    
   139.00  0.27519    
   140.00  0.28202    
   141.00  0.28942    
   142.00  0.29745    
   143.00  0.30615    
   144.00  0.31559    
   145.00  0.32582    
   146.00  0.33691    
   147.00  0.34891    
   148.00  0.36189    
   149.00  0.37588    
   150.00  0.39090    
   151.00  0.40695    
   152.00  0.42396    
   153.00  0.44184    
   154.00  0.46039    
   155.00  0.47931    
   156.00  0.49823    
   157.00  0.51662    
   158.00  0.53382    
   159.00  0.54907    
   160.00  0.56150    
   161.00  0.57021    
   162.00  0.57434    
   163.00  0.57318    
   164.00  0.56631    
   165.00  0.55371    
   166.00  0.53594    
   167.00  0.51416    
   168.00  0.49014    
   169.00  0.46619    
   170.00  0.44493    
   171.00  0.42904    
   172.00  0.42080    
   173.00  0.42178    
   174.00  0.43234    
   175.00  0.45143    
   176.00  0.47645    
   177.00  0.50341    
   178.00  0.52757    
   179.00  0.54434    
   180.00  0.55035    
 |--------|------------|
0.540000     micron = Wavelength
0.113400     = Extinction efficiency (Q)
0.104116     = Scattering efficiency (Qs)
0.928430E-02 = Absorption efficiency (Qa)
 24.8697     = Lidar ratio
0.336362E-02 micron^2 = <b> = Average surface area per particle
0.381435E-03 microns^2 = Extinction cross section (C)
0.350206E-03 microns^2 = Scattering cross section (Cs)
0.312288E-04 microns^2 = Absorption cross section (Ca)
 |----------------------------------------------------|
 | COMMENTAIRES:                                      |
 |----------------------------------------------------|
 |   -Cross section / <b> should = efficiency         |
 |    is independant of the normalisation of dN/dx    |
 |   -The integral of the phase fct / 4 pi over all   |
 |    directions (solid angle) = 1.                   |
 |   -The volume coefficient (k) is equal to C * N    |
 |      = cross section * Number density              |
 |      typical units: [um^2]*[particles/cm^3] =      |
 |      [10^-3 km-1]                                  |
 |      N = M/(d*4/3*pi*r^3) where d is the density   |
 |      of particle, M is the mass per unit volume    |
 |      and 4/3*pi*r^3 is the average volume  of a    |
 |      particle.                                     |
 |      typical units:  M -> [ug/m^3], d -> [g/cm^3]  |
 |                      r -> [um]                     |
 |      Lidar ratio= 4 pi Qe / phase_fct(180)*Qs      |
 |----------------------------------------------------|
