 |--------|------------|
 | ANGLE  |  PHASE FCT |
 |--------|------------|
     0.00   32.431    
     1.00   32.190    
     2.00   31.486    
     3.00   30.367    
     4.00   28.907    
     5.00   27.192    
     6.00   25.310    
     7.00   23.342    
     8.00   21.361    
     9.00   19.423    
    10.00   17.571    
    11.00   15.834    
    12.00   14.229    
    13.00   12.765    
    14.00   11.444    
    15.00   10.261    
    16.00   9.2080    
    17.00   8.2764    
    18.00   7.4551    
    19.00   6.7330    
    20.00   6.0991    
    21.00   5.5430    
    22.00   5.0551    
    23.00   4.6265    
    24.00   4.2493    
    25.00   3.9166    
    26.00   3.6221    
    27.00   3.3605    
    28.00   3.1273    
    29.00   2.9185    
    30.00   2.7306    
    31.00   2.5608    
    32.00   2.4067    
    33.00   2.2663    
    34.00   2.1377    
    35.00   2.0195    
    36.00   1.9104    
    37.00   1.8095    
    38.00   1.7158    
    39.00   1.6285    
    40.00   1.5471    
    41.00   1.4709    
    42.00   1.3994    
    43.00   1.3323    
    44.00   1.2693    
    45.00   1.2099    
    46.00   1.1539    
    47.00   1.1010    
    48.00   1.0511    
    49.00   1.0040    
    50.00  0.95937    
    51.00  0.91717    
    52.00  0.87722    
    53.00  0.83938    
    54.00  0.80353    
    55.00  0.76955    
    56.00  0.73734    
    57.00  0.70679    
    58.00  0.67782    
    59.00  0.65034    
    60.00  0.62426    
    61.00  0.59951    
    62.00  0.57601    
    63.00  0.55371    
    64.00  0.53253    
    65.00  0.51242    
    66.00  0.49332    
    67.00  0.47518    
    68.00  0.45795    
    69.00  0.44158    
    70.00  0.42602    
    71.00  0.41124    
    72.00  0.39720    
    73.00  0.38385    
    74.00  0.37117    
    75.00  0.35913    
    76.00  0.34768    
    77.00  0.33680    
    78.00  0.32647    
    79.00  0.31666    
    80.00  0.30734    
    81.00  0.29849    
    82.00  0.29009    
    83.00  0.28212    
    84.00  0.27456    
    85.00  0.26738    
    86.00  0.26058    
    87.00  0.25414    
    88.00  0.24804    
    89.00  0.24227    
    90.00  0.23682    
    91.00  0.23166    
    92.00  0.22679    
    93.00  0.22221    
    94.00  0.21789    
    95.00  0.21382    
    96.00  0.21001    
    97.00  0.20643    
    98.00  0.20309    
    99.00  0.19997    
   100.00  0.19707    
   101.00  0.19438    
   102.00  0.19189    
   103.00  0.18960    
   104.00  0.18750    
   105.00  0.18559    
   106.00  0.18387    
   107.00  0.18232    
   108.00  0.18095    
   109.00  0.17975    
   110.00  0.17872    
   111.00  0.17787    
   112.00  0.17717    
   113.00  0.17665    
   114.00  0.17629    
   115.00  0.17609    
   116.00  0.17606    
   117.00  0.17619    
   118.00  0.17649    
   119.00  0.17697    
   120.00  0.17761    
   121.00  0.17843    
   122.00  0.17944    
   123.00  0.18063    
   124.00  0.18201    
   125.00  0.18360    
   126.00  0.18539    
   127.00  0.18741    
   128.00  0.18966    
   129.00  0.19215    
   130.00  0.19491    
   131.00  0.19794    
   132.00  0.20127    
   133.00  0.20492    
   134.00  0.20891    
   135.00  0.21327    
   136.00  0.21803    
   137.00  0.22321    
   138.00  0.22886    
   139.00  0.23500    
   140.00  0.24168    
   141.00  0.24894    
   142.00  0.25681    
   143.00  0.26533    
   144.00  0.27454    
   145.00  0.28446    
   146.00  0.29512    
   147.00  0.30653    
   148.00  0.31866    
   149.00  0.33149    
   150.00  0.34493    
   151.00  0.35889    
   152.00  0.37320    
   153.00  0.38764    
   154.00  0.40194    
   155.00  0.41574    
   156.00  0.42864    
   157.00  0.44018    
   158.00  0.44984    
   159.00  0.45713    
   160.00  0.46156    
   161.00  0.46273    
   162.00  0.46042    
   163.00  0.45459    
   164.00  0.44550    
   165.00  0.43375    
   166.00  0.42027    
   167.00  0.40633    
   168.00  0.39343    
   169.00  0.38321    
   170.00  0.37724    
   171.00  0.37686    
   172.00  0.38287    
   173.00  0.39544    
   174.00  0.41389    
   175.00  0.43665    
   176.00  0.46140    
   177.00  0.48523    
   178.00  0.50510    
   179.00  0.51829    
   180.00  0.52291    
 |--------|------------|
0.616000     micron = Wavelength
0.111299     = Extinction efficiency (Q)
0.102336     = Scattering efficiency (Qs)
0.896318E-02 = Absorption efficiency (Qa)
 26.1365     = Lidar ratio
0.313422E-02 micron^2 = <b> = Average surface area per particle
0.348836E-03 microns^2 = Extinction cross section (C)
0.320744E-03 microns^2 = Scattering cross section (Cs)
0.280926E-04 microns^2 = Absorption cross section (Ca)
 |----------------------------------------------------|
 | COMMENTAIRES:                                      |
 |----------------------------------------------------|
 |   -Cross section / <b> should = efficiency         |
 |    is independant of the normalisation of dN/dx    |
 |   -The integral of the phase fct / 4 pi over all   |
 |    directions (solid angle) = 1.                   |
 |   -The volume coefficient (k) is equal to C * N    |
 |      = cross section * Number density              |
 |      typical units: [um^2]*[particles/cm^3] =      |
 |      [10^-3 km-1]                                  |
 |      N = M/(d*4/3*pi*r^3) where d is the density   |
 |      of particle, M is the mass per unit volume    |
 |      and 4/3*pi*r^3 is the average volume  of a    |
 |      particle.                                     |
 |      typical units:  M -> [ug/m^3], d -> [g/cm^3]  |
 |                      r -> [um]                     |
 |      Lidar ratio= 4 pi Qe / phase_fct(180)*Qs      |
 |----------------------------------------------------|
