 |--------|------------|
 | ANGLE  |  PHASE FCT |
 |--------|------------|
     0.00   60.734    
     1.00   59.507    
     2.00   56.042    
     3.00   50.917    
     4.00   44.856    
     5.00   38.538    
     6.00   32.474    
     7.00   26.981    
     8.00   22.212    
     9.00   18.204    
    10.00   14.916    
    11.00   12.267    
    12.00   10.161    
    13.00   8.5042    
    14.00   7.2079    
    15.00   6.1970    
    16.00   5.4088    
    17.00   4.7924    
    18.00   4.3076    
    19.00   3.9228    
    20.00   3.6137    
    21.00   3.3616    
    22.00   3.1524    
    23.00   2.9754    
    24.00   2.8227    
    25.00   2.6884    
    26.00   2.5683    
    27.00   2.4590    
    28.00   2.3584    
    29.00   2.2646    
    30.00   2.1766    
    31.00   2.0933    
    32.00   2.0142    
    33.00   1.9387    
    34.00   1.8665    
    35.00   1.7973    
    36.00   1.7310    
    37.00   1.6673    
    38.00   1.6061    
    39.00   1.5472    
    40.00   1.4907    
    41.00   1.4364    
    42.00   1.3842    
    43.00   1.3340    
    44.00   1.2859    
    45.00   1.2396    
    46.00   1.1952    
    47.00   1.1526    
    48.00   1.1117    
    49.00   1.0724    
    50.00   1.0348    
    51.00  0.99867    
    52.00  0.96403    
    53.00  0.93082    
    54.00  0.89897    
    55.00  0.86845    
    56.00  0.83919    
    57.00  0.81115    
    58.00  0.78428    
    59.00  0.75853    
    60.00  0.73387    
    61.00  0.71024    
    62.00  0.68761    
    63.00  0.66595    
    64.00  0.64520    
    65.00  0.62534    
    66.00  0.60632    
    67.00  0.58813    
    68.00  0.57072    
    69.00  0.55407    
    70.00  0.53815    
    71.00  0.52292    
    72.00  0.50837    
    73.00  0.49447    
    74.00  0.48119    
    75.00  0.46851    
    76.00  0.45641    
    77.00  0.44487    
    78.00  0.43386    
    79.00  0.42337    
    80.00  0.41338    
    81.00  0.40386    
    82.00  0.39481    
    83.00  0.38621    
    84.00  0.37803    
    85.00  0.37027    
    86.00  0.36292    
    87.00  0.35595    
    88.00  0.34935    
    89.00  0.34312    
    90.00  0.33724    
    91.00  0.33169    
    92.00  0.32647    
    93.00  0.32157    
    94.00  0.31697    
    95.00  0.31268    
    96.00  0.30867    
    97.00  0.30494    
    98.00  0.30148    
    99.00  0.29828    
   100.00  0.29535    
   101.00  0.29266    
   102.00  0.29021    
   103.00  0.28800    
   104.00  0.28602    
   105.00  0.28426    
   106.00  0.28272    
   107.00  0.28140    
   108.00  0.28029    
   109.00  0.27938    
   110.00  0.27868    
   111.00  0.27817    
   112.00  0.27786    
   113.00  0.27774    
   114.00  0.27781    
   115.00  0.27807    
   116.00  0.27852    
   117.00  0.27916    
   118.00  0.27998    
   119.00  0.28100    
   120.00  0.28220    
   121.00  0.28359    
   122.00  0.28518    
   123.00  0.28697    
   124.00  0.28896    
   125.00  0.29116    
   126.00  0.29358    
   127.00  0.29622    
   128.00  0.29910    
   129.00  0.30222    
   130.00  0.30560    
   131.00  0.30924    
   132.00  0.31317    
   133.00  0.31739    
   134.00  0.32193    
   135.00  0.32681    
   136.00  0.33204    
   137.00  0.33764    
   138.00  0.34364    
   139.00  0.35005    
   140.00  0.35691    
   141.00  0.36423    
   142.00  0.37203    
   143.00  0.38036    
   144.00  0.38921    
   145.00  0.39864    
   146.00  0.40865    
   147.00  0.41930    
   148.00  0.43060    
   149.00  0.44262    
   150.00  0.45538    
   151.00  0.46896    
   152.00  0.48341    
   153.00  0.49879    
   154.00  0.51515    
   155.00  0.53251    
   156.00  0.55086    
   157.00  0.57010    
   158.00  0.59001    
   159.00  0.61021    
   160.00  0.63008    
   161.00  0.64878    
   162.00  0.66518    
   163.00  0.67792    
   164.00  0.68548    
   165.00  0.68641    
   166.00  0.67951    
   167.00  0.66421    
   168.00  0.64086    
   169.00  0.61093    
   170.00  0.57710    
   171.00  0.54303    
   172.00  0.51303    
   173.00  0.49149    
   174.00  0.48222    
   175.00  0.48730    
   176.00  0.50622    
   177.00  0.53492    
   178.00  0.56596    
   179.00  0.59000    
   180.00  0.59907    
 |--------|------------|
0.560000     micron = Wavelength
0.132821     = Extinction efficiency (Q)
0.122097     = Scattering efficiency (Qs)
0.107237E-01 = Absorption efficiency (Qa)
 22.8189     = Lidar ratio
0.627997E-02 micron^2 = <b> = Average surface area per particle
0.834113E-03 microns^2 = Extinction cross section (C)
0.766769E-03 microns^2 = Scattering cross section (Cs)
0.673445E-04 microns^2 = Absorption cross section (Ca)
 |----------------------------------------------------|
 | COMMENTAIRES:                                      |
 |----------------------------------------------------|
 |   -Cross section / <b> should = efficiency         |
 |    is independant of the normalisation of dN/dx    |
 |   -The integral of the phase fct / 4 pi over all   |
 |    directions (solid angle) = 1.                   |
 |   -The volume coefficient (k) is equal to C * N    |
 |      = cross section * Number density              |
 |      typical units: [um^2]*[particles/cm^3] =      |
 |      [10^-3 km-1]                                  |
 |      N = M/(d*4/3*pi*r^3) where d is the density   |
 |      of particle, M is the mass per unit volume    |
 |      and 4/3*pi*r^3 is the average volume  of a    |
 |      particle.                                     |
 |      typical units:  M -> [ug/m^3], d -> [g/cm^3]  |
 |                      r -> [um]                     |
 |      Lidar ratio= 4 pi Qe / phase_fct(180)*Qs      |
 |----------------------------------------------------|
