 |--------|------------|
 | ANGLE  |  PHASE FCT |
 |--------|------------|
     0.00   66.764    
     1.00   63.839    
     2.00   56.063    
     3.00   45.813    
     4.00   35.519    
     5.00   26.699    
     6.00   19.837    
     7.00   14.798    
     8.00   11.229    
     9.00   8.7654    
    10.00   7.0862    
    11.00   5.9432    
    12.00   5.1597    
    13.00   4.6150    
    14.00   4.2266    
    15.00   3.9400    
    16.00   3.7206    
    17.00   3.5461    
    18.00   3.4020    
    19.00   3.2787    
    20.00   3.1699    
    21.00   3.0714    
    22.00   2.9805    
    23.00   2.8958    
    24.00   2.8157    
    25.00   2.7393    
    26.00   2.6660    
    27.00   2.5955    
    28.00   2.5275    
    29.00   2.4615    
    30.00   2.3974    
    31.00   2.3351    
    32.00   2.2744    
    33.00   2.2152    
    34.00   2.1574    
    35.00   2.1009    
    36.00   2.0457    
    37.00   1.9918    
    38.00   1.9389    
    39.00   1.8872    
    40.00   1.8366    
    41.00   1.7871    
    42.00   1.7386    
    43.00   1.6912    
    44.00   1.6448    
    45.00   1.5994    
    46.00   1.5550    
    47.00   1.5116    
    48.00   1.4692    
    49.00   1.4277    
    50.00   1.3872    
    51.00   1.3477    
    52.00   1.3091    
    53.00   1.2715    
    54.00   1.2348    
    55.00   1.1990    
    56.00   1.1642    
    57.00   1.1303    
    58.00   1.0973    
    59.00   1.0652    
    60.00   1.0340    
    61.00   1.0037    
    62.00  0.97428    
    63.00  0.94571    
    64.00  0.91801    
    65.00  0.89116    
    66.00  0.86515    
    67.00  0.83996    
    68.00  0.81560    
    69.00  0.79204    
    70.00  0.76927    
    71.00  0.74728    
    72.00  0.72607    
    73.00  0.70560    
    74.00  0.68588    
    75.00  0.66689    
    76.00  0.64861    
    77.00  0.63103    
    78.00  0.61413    
    79.00  0.59790    
    80.00  0.58233    
    81.00  0.56739    
    82.00  0.55307    
    83.00  0.53936    
    84.00  0.52624    
    85.00  0.51370    
    86.00  0.50172    
    87.00  0.49029    
    88.00  0.47938    
    89.00  0.46899    
    90.00  0.45909    
    91.00  0.44968    
    92.00  0.44074    
    93.00  0.43227    
    94.00  0.42423    
    95.00  0.41662    
    96.00  0.40943    
    97.00  0.40264    
    98.00  0.39625    
    99.00  0.39023    
   100.00  0.38459    
   101.00  0.37929    
   102.00  0.37435    
   103.00  0.36974    
   104.00  0.36545    
   105.00  0.36147    
   106.00  0.35780    
   107.00  0.35442    
   108.00  0.35132    
   109.00  0.34850    
   110.00  0.34594    
   111.00  0.34363    
   112.00  0.34158    
   113.00  0.33976    
   114.00  0.33818    
   115.00  0.33682    
   116.00  0.33567    
   117.00  0.33473    
   118.00  0.33400    
   119.00  0.33346    
   120.00  0.33312    
   121.00  0.33296    
   122.00  0.33299    
   123.00  0.33319    
   124.00  0.33356    
   125.00  0.33411    
   126.00  0.33483    
   127.00  0.33573    
   128.00  0.33679    
   129.00  0.33803    
   130.00  0.33944    
   131.00  0.34103    
   132.00  0.34281    
   133.00  0.34478    
   134.00  0.34696    
   135.00  0.34935    
   136.00  0.35197    
   137.00  0.35483    
   138.00  0.35794    
   139.00  0.36133    
   140.00  0.36501    
   141.00  0.36900    
   142.00  0.37331    
   143.00  0.37797    
   144.00  0.38298    
   145.00  0.38835    
   146.00  0.39408    
   147.00  0.40016    
   148.00  0.40657    
   149.00  0.41329    
   150.00  0.42027    
   151.00  0.42747    
   152.00  0.43482    
   153.00  0.44227    
   154.00  0.44975    
   155.00  0.45719    
   156.00  0.46459    
   157.00  0.47195    
   158.00  0.47929    
   159.00  0.48670    
   160.00  0.49428    
   161.00  0.50212    
   162.00  0.51021    
   163.00  0.51851    
   164.00  0.52671    
   165.00  0.53430    
   166.00  0.54067    
   167.00  0.54527    
   168.00  0.54767    
   169.00  0.54770    
   170.00  0.54536    
   171.00  0.54043    
   172.00  0.53242    
   173.00  0.52133    
   174.00  0.50843    
   175.00  0.49666    
   176.00  0.49063    
   177.00  0.49505    
   178.00  0.51014    
   179.00  0.52787    
   180.00  0.53582    
 |--------|------------|
0.360000     micron = Wavelength
0.259035     = Extinction efficiency (Q)
0.242832     = Scattering efficiency (Qs)
0.162028E-01 = Absorption efficiency (Qa)
 25.0177     = Lidar ratio
0.627973E-02 micron^2 = <b> = Average surface area per particle
0.162667E-02 microns^2 = Extinction cross section (C)
0.152492E-02 microns^2 = Scattering cross section (Cs)
0.101749E-03 microns^2 = Absorption cross section (Ca)
 |----------------------------------------------------|
 | COMMENTAIRES:                                      |
 |----------------------------------------------------|
 |   -Cross section / <b> should = efficiency         |
 |    is independant of the normalisation of dN/dx    |
 |   -The integral of the phase fct / 4 pi over all   |
 |    directions (solid angle) = 1.                   |
 |   -The volume coefficient (k) is equal to C * N    |
 |      = cross section * Number density              |
 |      typical units: [um^2]*[particles/cm^3] =      |
 |      [10^-3 km-1]                                  |
 |      N = M/(d*4/3*pi*r^3) where d is the density   |
 |      of particle, M is the mass per unit volume    |
 |      and 4/3*pi*r^3 is the average volume  of a    |
 |      particle.                                     |
 |      typical units:  M -> [ug/m^3], d -> [g/cm^3]  |
 |                      r -> [um]                     |
 |      Lidar ratio= 4 pi Qe / phase_fct(180)*Qs      |
 |----------------------------------------------------|
