 |--------|------------|
 | ANGLE  |  PHASE FCT |
 |--------|------------|
     0.00   101.14    
     1.00   98.137    
     2.00   89.876    
     3.00   78.209    
     4.00   65.279    
     5.00   52.799    
     6.00   41.774    
     7.00   32.597    
     8.00   25.276    
     9.00   19.612    
    10.00   15.325    
    11.00   12.126    
    12.00   9.7616    
    13.00   8.0204    
    14.00   6.7376    
    15.00   5.7877    
    16.00   5.0779    
    17.00   4.5399    
    18.00   4.1246    
    19.00   3.7969    
    20.00   3.5318    
    21.00   3.3117    
    22.00   3.1241    
    23.00   2.9602    
    24.00   2.8142    
    25.00   2.6819    
    26.00   2.5602    
    27.00   2.4471    
    28.00   2.3412    
    29.00   2.2413    
    30.00   2.1468    
    31.00   2.0571    
    32.00   1.9716    
    33.00   1.8902    
    34.00   1.8125    
    35.00   1.7382    
    36.00   1.6671    
    37.00   1.5992    
    38.00   1.5343    
    39.00   1.4722    
    40.00   1.4127    
    41.00   1.3558    
    42.00   1.3014    
    43.00   1.2494    
    44.00   1.1996    
    45.00   1.1520    
    46.00   1.1064    
    47.00   1.0628    
    48.00   1.0212    
    49.00  0.98137    
    50.00  0.94331    
    51.00  0.90692    
    52.00  0.87214    
    53.00  0.83890    
    54.00  0.80714    
    55.00  0.77680    
    56.00  0.74781    
    57.00  0.72012    
    58.00  0.69368    
    59.00  0.66842    
    60.00  0.64430    
    61.00  0.62127    
    62.00  0.59930    
    63.00  0.57832    
    64.00  0.55830    
    65.00  0.53920    
    66.00  0.52098    
    67.00  0.50360    
    68.00  0.48703    
    69.00  0.47123    
    70.00  0.45617    
    71.00  0.44183    
    72.00  0.42816    
    73.00  0.41515    
    74.00  0.40276    
    75.00  0.39098    
    76.00  0.37976    
    77.00  0.36910    
    78.00  0.35896    
    79.00  0.34933    
    80.00  0.34019    
    81.00  0.33151    
    82.00  0.32327    
    83.00  0.31545    
    84.00  0.30805    
    85.00  0.30103    
    86.00  0.29439    
    87.00  0.28810    
    88.00  0.28216    
    89.00  0.27654    
    90.00  0.27124    
    91.00  0.26624    
    92.00  0.26153    
    93.00  0.25709    
    94.00  0.25292    
    95.00  0.24901    
    96.00  0.24534    
    97.00  0.24191    
    98.00  0.23871    
    99.00  0.23572    
   100.00  0.23295    
   101.00  0.23039    
   102.00  0.22802    
   103.00  0.22585    
   104.00  0.22387    
   105.00  0.22208    
   106.00  0.22046    
   107.00  0.21903    
   108.00  0.21776    
   109.00  0.21667    
   110.00  0.21575    
   111.00  0.21500    
   112.00  0.21441    
   113.00  0.21400    
   114.00  0.21375    
   115.00  0.21367    
   116.00  0.21376    
   117.00  0.21403    
   118.00  0.21447    
   119.00  0.21510    
   120.00  0.21591    
   121.00  0.21692    
   122.00  0.21812    
   123.00  0.21954    
   124.00  0.22117    
   125.00  0.22304    
   126.00  0.22515    
   127.00  0.22753    
   128.00  0.23017    
   129.00  0.23312    
   130.00  0.23637    
   131.00  0.23996    
   132.00  0.24392    
   133.00  0.24825    
   134.00  0.25299    
   135.00  0.25818    
   136.00  0.26382    
   137.00  0.26995    
   138.00  0.27660    
   139.00  0.28379    
   140.00  0.29154    
   141.00  0.29985    
   142.00  0.30874    
   143.00  0.31821    
   144.00  0.32823    
   145.00  0.33880    
   146.00  0.34988    
   147.00  0.36142    
   148.00  0.37336    
   149.00  0.38564    
   150.00  0.39820    
   151.00  0.41097    
   152.00  0.42391    
   153.00  0.43700    
   154.00  0.45026    
   155.00  0.46375    
   156.00  0.47762    
   157.00  0.49205    
   158.00  0.50725    
   159.00  0.52342    
   160.00  0.54066    
   161.00  0.55890    
   162.00  0.57771    
   163.00  0.59628    
   164.00  0.61326    
   165.00  0.62674    
   166.00  0.63445    
   167.00  0.63415    
   168.00  0.62410    
   169.00  0.60379    
   170.00  0.57439    
   171.00  0.53900    
   172.00  0.50233    
   173.00  0.47049    
   174.00  0.45019    
   175.00  0.44752    
   176.00  0.46591    
   177.00  0.50343    
   178.00  0.55036    
   179.00  0.59003    
   180.00  0.60565    
 |--------|------------|
0.690000     micron = Wavelength
0.165671     = Extinction efficiency (Q)
0.152935     = Scattering efficiency (Qs)
0.127359E-01 = Absorption efficiency (Qa)
 22.4764     = Lidar ratio
0.957050E-02 micron^2 = <b> = Average surface area per particle
0.158555E-02 microns^2 = Extinction cross section (C)
0.146366E-02 microns^2 = Scattering cross section (Cs)
0.121889E-03 microns^2 = Absorption cross section (Ca)
 |----------------------------------------------------|
 | COMMENTAIRES:                                      |
 |----------------------------------------------------|
 |   -Cross section / <b> should = efficiency         |
 |    is independant of the normalisation of dN/dx    |
 |   -The integral of the phase fct / 4 pi over all   |
 |    directions (solid angle) = 1.                   |
 |   -The volume coefficient (k) is equal to C * N    |
 |      = cross section * Number density              |
 |      typical units: [um^2]*[particles/cm^3] =      |
 |      [10^-3 km-1]                                  |
 |      N = M/(d*4/3*pi*r^3) where d is the density   |
 |      of particle, M is the mass per unit volume    |
 |      and 4/3*pi*r^3 is the average volume  of a    |
 |      particle.                                     |
 |      typical units:  M -> [ug/m^3], d -> [g/cm^3]  |
 |                      r -> [um]                     |
 |      Lidar ratio= 4 pi Qe / phase_fct(180)*Qs      |
 |----------------------------------------------------|
