 |--------|------------|
 | ANGLE  |  PHASE FCT |
 |--------|------------|
     0.00   156.57    
     1.00   148.69    
     2.00   127.95    
     3.00   101.20    
     4.00   75.204    
     5.00   53.821    
     6.00   37.902    
     7.00   26.690    
     8.00   19.053    
     9.00   13.974    
    10.00   10.632    
    11.00   8.4227    
    12.00   6.9433    
    13.00   5.9319    
    14.00   5.2184    
    15.00   4.6963    
    16.00   4.3000    
    17.00   3.9865    
    18.00   3.7279    
    19.00   3.5079    
    20.00   3.3169    
    21.00   3.1476    
    22.00   2.9940    
    23.00   2.8530    
    24.00   2.7231    
    25.00   2.6029    
    26.00   2.4906    
    27.00   2.3851    
    28.00   2.2857    
    29.00   2.1922    
    30.00   2.1041    
    31.00   2.0204    
    32.00   1.9408    
    33.00   1.8653    
    34.00   1.7937    
    35.00   1.7253    
    36.00   1.6599    
    37.00   1.5975    
    38.00   1.5381    
    39.00   1.4812    
    40.00   1.4266    
    41.00   1.3743    
    42.00   1.3244    
    43.00   1.2765    
    44.00   1.2304    
    45.00   1.1863    
    46.00   1.1440    
    47.00   1.1034    
    48.00   1.0643    
    49.00   1.0268    
    50.00  0.99090    
    51.00  0.95634    
    52.00  0.92309    
    53.00  0.89117    
    54.00  0.86055    
    55.00  0.83111    
    56.00  0.80279    
    57.00  0.77559    
    58.00  0.74951    
    59.00  0.72443    
    60.00  0.70031    
    61.00  0.67717    
    62.00  0.65498    
    63.00  0.63366    
    64.00  0.61317    
    65.00  0.59354    
    66.00  0.57472    
    67.00  0.55666    
    68.00  0.53933    
    69.00  0.52274    
    70.00  0.50687    
    71.00  0.49166    
    72.00  0.47709    
    73.00  0.46318    
    74.00  0.44988    
    75.00  0.43717    
    76.00  0.42503    
    77.00  0.41346    
    78.00  0.40243    
    79.00  0.39192    
    80.00  0.38191    
    81.00  0.37240    
    82.00  0.36335    
    83.00  0.35475    
    84.00  0.34659    
    85.00  0.33886    
    86.00  0.33153    
    87.00  0.32459    
    88.00  0.31803    
    89.00  0.31182    
    90.00  0.30595    
    91.00  0.30042    
    92.00  0.29520    
    93.00  0.29028    
    94.00  0.28565    
    95.00  0.28130    
    96.00  0.27721    
    97.00  0.27337    
    98.00  0.26977    
    99.00  0.26641    
   100.00  0.26327    
   101.00  0.26035    
   102.00  0.25763    
   103.00  0.25511    
   104.00  0.25279    
   105.00  0.25065    
   106.00  0.24869    
   107.00  0.24692    
   108.00  0.24531    
   109.00  0.24387    
   110.00  0.24260    
   111.00  0.24149    
   112.00  0.24054    
   113.00  0.23975    
   114.00  0.23912    
   115.00  0.23865    
   116.00  0.23833    
   117.00  0.23817    
   118.00  0.23817    
   119.00  0.23833    
   120.00  0.23865    
   121.00  0.23915    
   122.00  0.23982    
   123.00  0.24067    
   124.00  0.24171    
   125.00  0.24295    
   126.00  0.24440    
   127.00  0.24608    
   128.00  0.24801    
   129.00  0.25020    
   130.00  0.25268    
   131.00  0.25547    
   132.00  0.25860    
   133.00  0.26209    
   134.00  0.26599    
   135.00  0.27033    
   136.00  0.27514    
   137.00  0.28047    
   138.00  0.28636    
   139.00  0.29283    
   140.00  0.29993    
   141.00  0.30766    
   142.00  0.31606    
   143.00  0.32510    
   144.00  0.33477    
   145.00  0.34503    
   146.00  0.35581    
   147.00  0.36700    
   148.00  0.37846    
   149.00  0.39002    
   150.00  0.40150    
   151.00  0.41265    
   152.00  0.42324    
   153.00  0.43308    
   154.00  0.44196    
   155.00  0.44974    
   156.00  0.45646    
   157.00  0.46226    
   158.00  0.46741    
   159.00  0.47239    
   160.00  0.47787    
   161.00  0.48454    
   162.00  0.49310    
   163.00  0.50421    
   164.00  0.51816    
   165.00  0.53446    
   166.00  0.55197    
   167.00  0.56896    
   168.00  0.58310    
   169.00  0.59239    
   170.00  0.59600    
   171.00  0.59365    
   172.00  0.58488    
   173.00  0.56984    
   174.00  0.55061    
   175.00  0.53213    
   176.00  0.52376    
   177.00  0.53743    
   178.00  0.57615    
   179.00  0.62153    
   180.00  0.64201    
 |--------|------------|
0.610000     micron = Wavelength
0.220145     = Extinction efficiency (Q)
0.202701     = Scattering efficiency (Qs)
0.174438E-01 = Absorption efficiency (Qa)
 21.2578     = Lidar ratio
0.116598E-01 micron^2 = <b> = Average surface area per particle
0.256686E-02 microns^2 = Extinction cross section (C)
0.236347E-02 microns^2 = Scattering cross section (Cs)
0.203392E-03 microns^2 = Absorption cross section (Ca)
 |----------------------------------------------------|
 | COMMENTAIRES:                                      |
 |----------------------------------------------------|
 |   -Cross section / <b> should = efficiency         |
 |    is independant of the normalisation of dN/dx    |
 |   -The integral of the phase fct / 4 pi over all   |
 |    directions (solid angle) = 1.                   |
 |   -The volume coefficient (k) is equal to C * N    |
 |      = cross section * Number density              |
 |      typical units: [um^2]*[particles/cm^3] =      |
 |      [10^-3 km-1]                                  |
 |      N = M/(d*4/3*pi*r^3) where d is the density   |
 |      of particle, M is the mass per unit volume    |
 |      and 4/3*pi*r^3 is the average volume  of a    |
 |      particle.                                     |
 |      typical units:  M -> [ug/m^3], d -> [g/cm^3]  |
 |                      r -> [um]                     |
 |      Lidar ratio= 4 pi Qe / phase_fct(180)*Qs      |
 |----------------------------------------------------|
