 |--------|------------|
 | ANGLE  |  PHASE FCT |
 |--------|------------|
     0.00   113.11    
     1.00   109.05    
     2.00   98.046    
     3.00   82.951    
     4.00   66.895    
     5.00   52.140    
     6.00   39.770    
     7.00   29.999    
     8.00   22.588    
     9.00   17.129    
    10.00   13.185    
    11.00   10.364    
    12.00   8.3556    
    13.00   6.9230    
    14.00   5.8932    
    15.00   5.1432    
    16.00   4.5869    
    17.00   4.1646    
    18.00   3.8348    
    19.00   3.5698    
    20.00   3.3505    
    21.00   3.1640    
    22.00   3.0010    
    23.00   2.8556    
    24.00   2.7239    
    25.00   2.6030    
    26.00   2.4908    
    27.00   2.3859    
    28.00   2.2872    
    29.00   2.1942    
    30.00   2.1061    
    31.00   2.0224    
    32.00   1.9428    
    33.00   1.8669    
    34.00   1.7946    
    35.00   1.7255    
    36.00   1.6594    
    37.00   1.5962    
    38.00   1.5358    
    39.00   1.4779    
    40.00   1.4224    
    41.00   1.3692    
    42.00   1.3183    
    43.00   1.2694    
    44.00   1.2226    
    45.00   1.1776    
    46.00   1.1346    
    47.00   1.0932    
    48.00   1.0536    
    49.00   1.0156    
    50.00  0.97911    
    51.00  0.94413    
    52.00  0.91057    
    53.00  0.87838    
    54.00  0.84752    
    55.00  0.81792    
    56.00  0.78953    
    57.00  0.76231    
    58.00  0.73623    
    59.00  0.71122    
    60.00  0.68724    
    61.00  0.66427    
    62.00  0.64227    
    63.00  0.62118    
    64.00  0.60099    
    65.00  0.58166    
    66.00  0.56316    
    67.00  0.54544    
    68.00  0.52850    
    69.00  0.51230    
    70.00  0.49681    
    71.00  0.48201    
    72.00  0.46787    
    73.00  0.45436    
    74.00  0.44148    
    75.00  0.42918    
    76.00  0.41746    
    77.00  0.40629    
    78.00  0.39565    
    79.00  0.38552    
    80.00  0.37589    
    81.00  0.36672    
    82.00  0.35802    
    83.00  0.34975    
    84.00  0.34190    
    85.00  0.33446    
    86.00  0.32740    
    87.00  0.32073    
    88.00  0.31441    
    89.00  0.30843    
    90.00  0.30279    
    91.00  0.29746    
    92.00  0.29244    
    93.00  0.28772    
    94.00  0.28327    
    95.00  0.27910    
    96.00  0.27518    
    97.00  0.27152    
    98.00  0.26810    
    99.00  0.26492    
   100.00  0.26196    
   101.00  0.25922    
   102.00  0.25669    
   103.00  0.25436    
   104.00  0.25224    
   105.00  0.25031    
   106.00  0.24856    
   107.00  0.24701    
   108.00  0.24563    
   109.00  0.24444    
   110.00  0.24342    
   111.00  0.24257    
   112.00  0.24189    
   113.00  0.24139    
   114.00  0.24105    
   115.00  0.24088    
   116.00  0.24088    
   117.00  0.24106    
   118.00  0.24140    
   119.00  0.24192    
   120.00  0.24263    
   121.00  0.24352    
   122.00  0.24460    
   123.00  0.24588    
   124.00  0.24737    
   125.00  0.24908    
   126.00  0.25101    
   127.00  0.25320    
   128.00  0.25564    
   129.00  0.25837    
   130.00  0.26139    
   131.00  0.26473    
   132.00  0.26841    
   133.00  0.27246    
   134.00  0.27691    
   135.00  0.28179    
   136.00  0.28712    
   137.00  0.29293    
   138.00  0.29926    
   139.00  0.30613    
   140.00  0.31356    
   141.00  0.32157    
   142.00  0.33017    
   143.00  0.33935    
   144.00  0.34909    
   145.00  0.35938    
   146.00  0.37017    
   147.00  0.38138    
   148.00  0.39294    
   149.00  0.40476    
   150.00  0.41671    
   151.00  0.42869    
   152.00  0.44059    
   153.00  0.45231    
   154.00  0.46381    
   155.00  0.47509    
   156.00  0.48626    
   157.00  0.49751    
   158.00  0.50910    
   159.00  0.52137    
   160.00  0.53466    
   161.00  0.54923    
   162.00  0.56512    
   163.00  0.58203    
   164.00  0.59915    
   165.00  0.61501    
   166.00  0.62763    
   167.00  0.63474    
   168.00  0.63422    
   169.00  0.62485    
   170.00  0.60680    
   171.00  0.58177    
   172.00  0.55281    
   173.00  0.52443    
   174.00  0.50259    
   175.00  0.49396    
   176.00  0.50442    
   177.00  0.53574    
   178.00  0.58073    
   179.00  0.62176    
   180.00  0.63849    
 |--------|------------|
0.620000     micron = Wavelength
0.178749     = Extinction efficiency (Q)
0.164842     = Scattering efficiency (Qs)
0.139067E-01 = Absorption efficiency (Qa)
 21.3418     = Lidar ratio
0.957031E-02 micron^2 = <b> = Average surface area per particle
0.171068E-02 microns^2 = Extinction cross section (C)
0.157759E-02 microns^2 = Scattering cross section (Cs)
0.133092E-03 microns^2 = Absorption cross section (Ca)
 |----------------------------------------------------|
 | COMMENTAIRES:                                      |
 |----------------------------------------------------|
 |   -Cross section / <b> should = efficiency         |
 |    is independant of the normalisation of dN/dx    |
 |   -The integral of the phase fct / 4 pi over all   |
 |    directions (solid angle) = 1.                   |
 |   -The volume coefficient (k) is equal to C * N    |
 |      = cross section * Number density              |
 |      typical units: [um^2]*[particles/cm^3] =      |
 |      [10^-3 km-1]                                  |
 |      N = M/(d*4/3*pi*r^3) where d is the density   |
 |      of particle, M is the mass per unit volume    |
 |      and 4/3*pi*r^3 is the average volume  of a    |
 |      particle.                                     |
 |      typical units:  M -> [ug/m^3], d -> [g/cm^3]  |
 |                      r -> [um]                     |
 |      Lidar ratio= 4 pi Qe / phase_fct(180)*Qs      |
 |----------------------------------------------------|
