 |--------|------------|
 | ANGLE  |  PHASE FCT |
 |--------|------------|
     0.00   48.765    
     1.00   47.989    
     2.00   45.776    
     3.00   42.422    
     4.00   38.326    
     5.00   33.887    
     6.00   29.440    
     7.00   25.230    
     8.00   21.407    
     9.00   18.045    
    10.00   15.162    
    11.00   12.737    
    12.00   10.727    
    13.00   9.0816    
    14.00   7.7453    
    15.00   6.6666    
    16.00   5.7989    
    17.00   5.1019    
    18.00   4.5417    
    19.00   4.0900    
    20.00   3.7239    
    21.00   3.4251    
    22.00   3.1787    
    23.00   2.9733    
    24.00   2.7996    
    25.00   2.6507    
    26.00   2.5210    
    27.00   2.4063    
    28.00   2.3033    
    29.00   2.2096    
    30.00   2.1233    
    31.00   2.0431    
    32.00   1.9679    
    33.00   1.8969    
    34.00   1.8294    
    35.00   1.7650    
    36.00   1.7035    
    37.00   1.6445    
    38.00   1.5878    
    39.00   1.5333    
    40.00   1.4809    
    41.00   1.4303    
    42.00   1.3817    
    43.00   1.3348    
    44.00   1.2896    
    45.00   1.2461    
    46.00   1.2041    
    47.00   1.1638    
    48.00   1.1249    
    49.00   1.0874    
    50.00   1.0514    
    51.00   1.0167    
    52.00  0.98333    
    53.00  0.95122    
    54.00  0.92034    
    55.00  0.89064    
    56.00  0.86210    
    57.00  0.83465    
    58.00  0.80827    
    59.00  0.78292    
    60.00  0.75856    
    61.00  0.73517    
    62.00  0.71270    
    63.00  0.69112    
    64.00  0.67041    
    65.00  0.65053    
    66.00  0.63145    
    67.00  0.61314    
    68.00  0.59559    
    69.00  0.57874    
    70.00  0.56260    
    71.00  0.54712    
    72.00  0.53230    
    73.00  0.51810    
    74.00  0.50450    
    75.00  0.49149    
    76.00  0.47904    
    77.00  0.46713    
    78.00  0.45575    
    79.00  0.44488    
    80.00  0.43450    
    81.00  0.42460    
    82.00  0.41516    
    83.00  0.40616    
    84.00  0.39760    
    85.00  0.38945    
    86.00  0.38171    
    87.00  0.37437    
    88.00  0.36740    
    89.00  0.36081    
    90.00  0.35458    
    91.00  0.34869    
    92.00  0.34314    
    93.00  0.33793    
    94.00  0.33303    
    95.00  0.32844    
    96.00  0.32416    
    97.00  0.32016    
    98.00  0.31646    
    99.00  0.31303    
   100.00  0.30987    
   101.00  0.30698    
   102.00  0.30434    
   103.00  0.30195    
   104.00  0.29981    
   105.00  0.29790    
   106.00  0.29622    
   107.00  0.29477    
   108.00  0.29354    
   109.00  0.29253    
   110.00  0.29173    
   111.00  0.29113    
   112.00  0.29074    
   113.00  0.29055    
   114.00  0.29055    
   115.00  0.29075    
   116.00  0.29114    
   117.00  0.29171    
   118.00  0.29248    
   119.00  0.29343    
   120.00  0.29457    
   121.00  0.29589    
   122.00  0.29741    
   123.00  0.29911    
   124.00  0.30101    
   125.00  0.30311    
   126.00  0.30541    
   127.00  0.30791    
   128.00  0.31064    
   129.00  0.31358    
   130.00  0.31677    
   131.00  0.32020    
   132.00  0.32389    
   133.00  0.32786    
   134.00  0.33212    
   135.00  0.33671    
   136.00  0.34164    
   137.00  0.34694    
   138.00  0.35265    
   139.00  0.35881    
   140.00  0.36545    
   141.00  0.37263    
   142.00  0.38040    
   143.00  0.38884    
   144.00  0.39801    
   145.00  0.40800    
   146.00  0.41891    
   147.00  0.43082    
   148.00  0.44384    
   149.00  0.45809    
   150.00  0.47367    
   151.00  0.49066    
   152.00  0.50912    
   153.00  0.52904    
   154.00  0.55038    
   155.00  0.57294    
   156.00  0.59643    
   157.00  0.62038    
   158.00  0.64414    
   159.00  0.66686    
   160.00  0.68748    
   161.00  0.70484    
   162.00  0.71770    
   163.00  0.72492    
   164.00  0.72563    
   165.00  0.71941    
   166.00  0.70647    
   167.00  0.68777    
   168.00  0.66505    
   169.00  0.64072    
   170.00  0.61766    
   171.00  0.59902    
   172.00  0.58782    
   173.00  0.58659    
   174.00  0.59678    
   175.00  0.61821    
   176.00  0.64855    
   177.00  0.68316    
   178.00  0.71555    
   179.00  0.73870    
   180.00  0.74713    
 |--------|------------|
0.430000     micron = Wavelength
0.124088     = Extinction efficiency (Q)
0.112363     = Scattering efficiency (Qs)
0.117244E-01 = Absorption efficiency (Qa)
 18.5746     = Lidar ratio
0.313422E-02 micron^2 = <b> = Average surface area per particle
0.388918E-03 microns^2 = Extinction cross section (C)
0.352171E-03 microns^2 = Scattering cross section (Cs)
0.367468E-04 microns^2 = Absorption cross section (Ca)
 |----------------------------------------------------|
 | COMMENTAIRES:                                      |
 |----------------------------------------------------|
 |   -Cross section / <b> should = efficiency         |
 |    is independant of the normalisation of dN/dx    |
 |   -The integral of the phase fct / 4 pi over all   |
 |    directions (solid angle) = 1.                   |
 |   -The volume coefficient (k) is equal to C * N    |
 |      = cross section * Number density              |
 |      typical units: [um^2]*[particles/cm^3] =      |
 |      [10^-3 km-1]                                  |
 |      N = M/(d*4/3*pi*r^3) where d is the density   |
 |      of particle, M is the mass per unit volume    |
 |      and 4/3*pi*r^3 is the average volume  of a    |
 |      particle.                                     |
 |      typical units:  M -> [ug/m^3], d -> [g/cm^3]  |
 |                      r -> [um]                     |
 |      Lidar ratio= 4 pi Qe / phase_fct(180)*Qs      |
 |----------------------------------------------------|
