 |--------|------------|
 | ANGLE  |  PHASE FCT |
 |--------|------------|
     0.00   26.575    
     1.00   26.439    
     2.00   26.039    
     3.00   25.394    
     4.00   24.535    
     5.00   23.500    
     6.00   22.329    
     7.00   21.065    
     8.00   19.745    
     9.00   18.405    
    10.00   17.073    
    11.00   15.773    
    12.00   14.523    
    13.00   13.335    
    14.00   12.219    
    15.00   11.179    
    16.00   10.217    
    17.00   9.3328    
    18.00   8.5236    
    19.00   7.7863    
    20.00   7.1168    
    21.00   6.5104    
    22.00   5.9621    
    23.00   5.4671    
    24.00   5.0205    
    25.00   4.6177    
    26.00   4.2544    
    27.00   3.9265    
    28.00   3.6304    
    29.00   3.3626    
    30.00   3.1201    
    31.00   2.9002    
    32.00   2.7005    
    33.00   2.5187    
    34.00   2.3529    
    35.00   2.2014    
    36.00   2.0627    
    37.00   1.9354    
    38.00   1.8184    
    39.00   1.7107    
    40.00   1.6112    
    41.00   1.5193    
    42.00   1.4341    
    43.00   1.3551    
    44.00   1.2816    
    45.00   1.2133    
    46.00   1.1496    
    47.00   1.0901    
    48.00   1.0346    
    49.00  0.98257    
    50.00  0.93388    
    51.00  0.88823    
    52.00  0.84539    
    53.00  0.80516    
    54.00  0.76734    
    55.00  0.73175    
    56.00  0.69825    
    57.00  0.66671    
    58.00  0.63696    
    59.00  0.60891    
    60.00  0.58244    
    61.00  0.55745    
    62.00  0.53384    
    63.00  0.51154    
    64.00  0.49046    
    65.00  0.47052    
    66.00  0.45166    
    67.00  0.43380    
    68.00  0.41691    
    69.00  0.40091    
    70.00  0.38576    
    71.00  0.37141    
    72.00  0.35781    
    73.00  0.34492    
    74.00  0.33271    
    75.00  0.32113    
    76.00  0.31015    
    77.00  0.29974    
    78.00  0.28987    
    79.00  0.28052    
    80.00  0.27164    
    81.00  0.26323    
    82.00  0.25526    
    83.00  0.24769    
    84.00  0.24053    
    85.00  0.23374    
    86.00  0.22731    
    87.00  0.22122    
    88.00  0.21545    
    89.00  0.20999    
    90.00  0.20483    
    91.00  0.19996    
    92.00  0.19535    
    93.00  0.19100    
    94.00  0.18691    
    95.00  0.18305    
    96.00  0.17942    
    97.00  0.17601    
    98.00  0.17282    
    99.00  0.16983    
   100.00  0.16704    
   101.00  0.16444    
   102.00  0.16202    
   103.00  0.15979    
   104.00  0.15773    
   105.00  0.15584    
   106.00  0.15412    
   107.00  0.15256    
   108.00  0.15116    
   109.00  0.14991    
   110.00  0.14883    
   111.00  0.14789    
   112.00  0.14711    
   113.00  0.14648    
   114.00  0.14600    
   115.00  0.14567    
   116.00  0.14549    
   117.00  0.14546    
   118.00  0.14559    
   119.00  0.14588    
   120.00  0.14633    
   121.00  0.14694    
   122.00  0.14772    
   123.00  0.14868    
   124.00  0.14982    
   125.00  0.15115    
   126.00  0.15267    
   127.00  0.15440    
   128.00  0.15635    
   129.00  0.15852    
   130.00  0.16094    
   131.00  0.16360    
   132.00  0.16654    
   133.00  0.16976    
   134.00  0.17327    
   135.00  0.17711    
   136.00  0.18128    
   137.00  0.18581    
   138.00  0.19071    
   139.00  0.19600    
   140.00  0.20169    
   141.00  0.20781    
   142.00  0.21435    
   143.00  0.22132    
   144.00  0.22873    
   145.00  0.23656    
   146.00  0.24478    
   147.00  0.25335    
   148.00  0.26223    
   149.00  0.27133    
   150.00  0.28055    
   151.00  0.28977    
   152.00  0.29882    
   153.00  0.30752    
   154.00  0.31566    
   155.00  0.32299    
   156.00  0.32928    
   157.00  0.33426    
   158.00  0.33768    
   159.00  0.33935    
   160.00  0.33912    
   161.00  0.33693    
   162.00  0.33286    
   163.00  0.32711    
   164.00  0.32007    
   165.00  0.31229    
   166.00  0.30448    
   167.00  0.29747    
   168.00  0.29213    
   169.00  0.28933    
   170.00  0.28979    
   171.00  0.29400    
   172.00  0.30211    
   173.00  0.31387    
   174.00  0.32857    
   175.00  0.34506    
   176.00  0.36188    
   177.00  0.37736    
   178.00  0.38987    
   179.00  0.39801    
   180.00  0.40083    
 |--------|------------|
0.730000     micron = Wavelength
0.112594     = Extinction efficiency (Q)
0.104204     = Scattering efficiency (Qs)
0.839006E-02 = Absorption efficiency (Qa)
 33.8752     = Lidar ratio
0.313422E-02 micron^2 = <b> = Average surface area per particle
0.352896E-03 microns^2 = Extinction cross section (C)
0.326599E-03 microns^2 = Scattering cross section (Cs)
0.262963E-04 microns^2 = Absorption cross section (Ca)
 |----------------------------------------------------|
 | COMMENTAIRES:                                      |
 |----------------------------------------------------|
 |   -Cross section / <b> should = efficiency         |
 |    is independant of the normalisation of dN/dx    |
 |   -The integral of the phase fct / 4 pi over all   |
 |    directions (solid angle) = 1.                   |
 |   -The volume coefficient (k) is equal to C * N    |
 |      = cross section * Number density              |
 |      typical units: [um^2]*[particles/cm^3] =      |
 |      [10^-3 km-1]                                  |
 |      N = M/(d*4/3*pi*r^3) where d is the density   |
 |      of particle, M is the mass per unit volume    |
 |      and 4/3*pi*r^3 is the average volume  of a    |
 |      particle.                                     |
 |      typical units:  M -> [ug/m^3], d -> [g/cm^3]  |
 |                      r -> [um]                     |
 |      Lidar ratio= 4 pi Qe / phase_fct(180)*Qs      |
 |----------------------------------------------------|
