 |--------|------------|
 | ANGLE  |  PHASE FCT |
 |--------|------------|
     0.00   113.27    
     1.00   104.05    
     2.00   81.137    
     3.00   54.952    
     4.00   34.002    
     5.00   20.826    
     6.00   13.592    
     7.00   9.6855    
     8.00   7.5114    
     9.00   6.3105    
    10.00   5.6287    
    11.00   5.1880    
    12.00   4.8746    
    13.00   4.6451    
    14.00   4.4646    
    15.00   4.3115    
    16.00   4.1777    
    17.00   4.0553    
    18.00   3.9394    
    19.00   3.8318    
    20.00   3.7328    
    21.00   3.6372    
    22.00   3.5420    
    23.00   3.4497    
    24.00   3.3619    
    25.00   3.2766    
    26.00   3.1915    
    27.00   3.1070    
    28.00   3.0248    
    29.00   2.9448    
    30.00   2.8656    
    31.00   2.7866    
    32.00   2.7089    
    33.00   2.6334    
    34.00   2.5591    
    35.00   2.4852    
    36.00   2.4125    
    37.00   2.3418    
    38.00   2.2725    
    39.00   2.2040    
    40.00   2.1366    
    41.00   2.0711    
    42.00   2.0072    
    43.00   1.9441    
    44.00   1.8823    
    45.00   1.8224    
    46.00   1.7639    
    47.00   1.7066    
    48.00   1.6505    
    49.00   1.5962    
    50.00   1.5433    
    51.00   1.4916    
    52.00   1.4412    
    53.00   1.3925    
    54.00   1.3451    
    55.00   1.2990    
    56.00   1.2542    
    57.00   1.2109    
    58.00   1.1690    
    59.00   1.1282    
    60.00   1.0887    
    61.00   1.0506    
    62.00   1.0138    
    63.00  0.97808    
    64.00  0.94362    
    65.00  0.91043    
    66.00  0.87838    
    67.00  0.84742    
    68.00  0.81760    
    69.00  0.78892    
    70.00  0.76131    
    71.00  0.73470    
    72.00  0.70912    
    73.00  0.68457    
    74.00  0.66100    
    75.00  0.63834    
    76.00  0.61660    
    77.00  0.59579    
    78.00  0.57586    
    79.00  0.55673    
    80.00  0.53844    
    81.00  0.52097    
    82.00  0.50428    
    83.00  0.48831    
    84.00  0.47307    
    85.00  0.45856    
    86.00  0.44471    
    87.00  0.43149    
    88.00  0.41892    
    89.00  0.40697    
    90.00  0.39558    
    91.00  0.38475    
    92.00  0.37446    
    93.00  0.36468    
    94.00  0.35539    
    95.00  0.34658    
    96.00  0.33823    
    97.00  0.33030    
    98.00  0.32280    
    99.00  0.31570    
   100.00  0.30897    
   101.00  0.30262    
   102.00  0.29663    
   103.00  0.29098    
   104.00  0.28565    
   105.00  0.28064    
   106.00  0.27594    
   107.00  0.27153    
   108.00  0.26740    
   109.00  0.26354    
   110.00  0.25995    
   111.00  0.25661    
   112.00  0.25351    
   113.00  0.25065    
   114.00  0.24801    
   115.00  0.24559    
   116.00  0.24339    
   117.00  0.24139    
   118.00  0.23959    
   119.00  0.23798    
   120.00  0.23655    
   121.00  0.23530    
   122.00  0.23423    
   123.00  0.23333    
   124.00  0.23259    
   125.00  0.23202    
   126.00  0.23160    
   127.00  0.23135    
   128.00  0.23125    
   129.00  0.23132    
   130.00  0.23154    
   131.00  0.23194    
   132.00  0.23250    
   133.00  0.23325    
   134.00  0.23419    
   135.00  0.23533    
   136.00  0.23669    
   137.00  0.23830    
   138.00  0.24017    
   139.00  0.24232    
   140.00  0.24477    
   141.00  0.24756    
   142.00  0.25070    
   143.00  0.25423    
   144.00  0.25813    
   145.00  0.26242    
   146.00  0.26709    
   147.00  0.27208    
   148.00  0.27732    
   149.00  0.28278    
   150.00  0.28834    
   151.00  0.29379    
   152.00  0.29898    
   153.00  0.30379    
   154.00  0.30799    
   155.00  0.31136    
   156.00  0.31392    
   157.00  0.31567    
   158.00  0.31653    
   159.00  0.31669    
   160.00  0.31657    
   161.00  0.31639    
   162.00  0.31639    
   163.00  0.31729    
   164.00  0.31958    
   165.00  0.32303    
   166.00  0.32766    
   167.00  0.33376    
   168.00  0.34075    
   169.00  0.34841    
   170.00  0.35840    
   171.00  0.37166    
   172.00  0.38579    
   173.00  0.39778    
   174.00  0.40497    
   175.00  0.40101    
   176.00  0.38122    
   177.00  0.35717    
   178.00  0.35102    
   179.00  0.36547    
   180.00  0.37587    
 |--------|------------|
0.340000     micron = Wavelength
0.450436     = Extinction efficiency (Q)
0.427003     = Scattering efficiency (Qs)
0.234330E-01 = Absorption efficiency (Qa)
 35.2676     = Lidar ratio
0.955321E-02 micron^2 = <b> = Average surface area per particle
0.430311E-02 microns^2 = Extinction cross section (C)
0.407925E-02 microns^2 = Scattering cross section (Cs)
0.223860E-03 microns^2 = Absorption cross section (Ca)
 |----------------------------------------------------|
 | COMMENTAIRES:                                      |
 |----------------------------------------------------|
 |   -Cross section / <b> should = efficiency         |
 |    is independant of the normalisation of dN/dx    |
 |   -The integral of the phase fct / 4 pi over all   |
 |    directions (solid angle) = 1.                   |
 |   -The volume coefficient (k) is equal to C * N    |
 |      = cross section * Number density              |
 |      typical units: [um^2]*[particles/cm^3] =      |
 |      [10^-3 km-1]                                  |
 |      N = M/(d*4/3*pi*r^3) where d is the density   |
 |      of particle, M is the mass per unit volume    |
 |      and 4/3*pi*r^3 is the average volume  of a    |
 |      particle.                                     |
 |      typical units:  M -> [ug/m^3], d -> [g/cm^3]  |
 |                      r -> [um]                     |
 |      Lidar ratio= 4 pi Qe / phase_fct(180)*Qs      |
 |----------------------------------------------------|
