 |--------|------------|
 | ANGLE  |  PHASE FCT |
 |--------|------------|
     0.00   150.08    
     1.00   136.80    
     2.00   104.12    
     3.00   67.592    
     4.00   39.477    
     5.00   22.835    
     6.00   14.360    
     7.00   10.032    
     8.00   7.6766    
     9.00   6.4091    
    10.00   5.7104    
    11.00   5.2527    
    12.00   4.9172    
    13.00   4.6678    
    14.00   4.4682    
    15.00   4.2986    
    16.00   4.1541    
    17.00   4.0230    
    18.00   3.8960    
    19.00   3.7780    
    20.00   3.6731    
    21.00   3.5743    
    22.00   3.4752    
    23.00   3.3780    
    24.00   3.2866    
    25.00   3.1998    
    26.00   3.1136    
    27.00   3.0272    
    28.00   2.9427    
    29.00   2.8618    
    30.00   2.7826    
    31.00   2.7032    
    32.00   2.6245    
    33.00   2.5488    
    34.00   2.4753    
    35.00   2.4020    
    36.00   2.3294    
    37.00   2.2592    
    38.00   2.1913    
    39.00   2.1240    
    40.00   2.0574    
    41.00   1.9931    
    42.00   1.9309    
    43.00   1.8694    
    44.00   1.8089    
    45.00   1.7505    
    46.00   1.6939    
    47.00   1.6383    
    48.00   1.5838    
    49.00   1.5311    
    50.00   1.4802    
    51.00   1.4303    
    52.00   1.3815    
    53.00   1.3345    
    54.00   1.2890    
    55.00   1.2446    
    56.00   1.2014    
    57.00   1.1598    
    58.00   1.1196    
    59.00   1.0805    
    60.00   1.0426    
    61.00   1.0060    
    62.00  0.97082    
    63.00  0.93663    
    64.00  0.90358    
    65.00  0.87181    
    66.00  0.84120    
    67.00  0.81160    
    68.00  0.78305    
    69.00  0.75564    
    70.00  0.72930    
    71.00  0.70388    
    72.00  0.67942    
    73.00  0.65600    
    74.00  0.63353    
    75.00  0.61190    
    76.00  0.59113    
    77.00  0.57129    
    78.00  0.55231    
    79.00  0.53407    
    80.00  0.51662    
    81.00  0.50000    
    82.00  0.48411    
    83.00  0.46891    
    84.00  0.45442    
    85.00  0.44063    
    86.00  0.42749    
    87.00  0.41496    
    88.00  0.40305    
    89.00  0.39173    
    90.00  0.38096    
    91.00  0.37074    
    92.00  0.36103    
    93.00  0.35180    
    94.00  0.34306    
    95.00  0.33479    
    96.00  0.32692    
    97.00  0.31946    
    98.00  0.31243    
    99.00  0.30577    
   100.00  0.29945    
   101.00  0.29349    
   102.00  0.28788    
   103.00  0.28258    
   104.00  0.27757    
   105.00  0.27288    
   106.00  0.26847    
   107.00  0.26431    
   108.00  0.26043    
   109.00  0.25682    
   110.00  0.25344    
   111.00  0.25029    
   112.00  0.24738    
   113.00  0.24469    
   114.00  0.24222    
   115.00  0.23995    
   116.00  0.23788    
   117.00  0.23601    
   118.00  0.23433    
   119.00  0.23283    
   120.00  0.23151    
   121.00  0.23035    
   122.00  0.22937    
   123.00  0.22856    
   124.00  0.22790    
   125.00  0.22740    
   126.00  0.22707    
   127.00  0.22689    
   128.00  0.22687    
   129.00  0.22703    
   130.00  0.22734    
   131.00  0.22784    
   132.00  0.22853    
   133.00  0.22941    
   134.00  0.23052    
   135.00  0.23185    
   136.00  0.23345    
   137.00  0.23532    
   138.00  0.23752    
   139.00  0.24007    
   140.00  0.24299    
   141.00  0.24631    
   142.00  0.25008    
   143.00  0.25430    
   144.00  0.25898    
   145.00  0.26412    
   146.00  0.26971    
   147.00  0.27561    
   148.00  0.28173    
   149.00  0.28800    
   150.00  0.29426    
   151.00  0.30022    
   152.00  0.30567    
   153.00  0.31048    
   154.00  0.31437    
   155.00  0.31707    
   156.00  0.31871    
   157.00  0.31939    
   158.00  0.31906    
   159.00  0.31804    
   160.00  0.31700    
   161.00  0.31616    
   162.00  0.31565    
   163.00  0.31640    
   164.00  0.31900    
   165.00  0.32293    
   166.00  0.32817    
   167.00  0.33528    
   168.00  0.34334    
   169.00  0.35160    
   170.00  0.36259    
   171.00  0.37843    
   172.00  0.39643    
   173.00  0.41351    
   174.00  0.42746    
   175.00  0.42853    
   176.00  0.40581    
   177.00  0.37219    
   178.00  0.36041    
   179.00  0.37804    
   180.00  0.39183    
 |--------|------------|
0.380000     micron = Wavelength
0.442275     = Extinction efficiency (Q)
0.417258     = Scattering efficiency (Qs)
0.250165E-01 = Absorption efficiency (Qa)
 33.9939     = Lidar ratio
0.116244E-01 micron^2 = <b> = Average surface area per particle
0.514119E-02 microns^2 = Extinction cross section (C)
0.485039E-02 microns^2 = Scattering cross section (Cs)
0.290803E-03 microns^2 = Absorption cross section (Ca)
 |----------------------------------------------------|
 | COMMENTAIRES:                                      |
 |----------------------------------------------------|
 |   -Cross section / <b> should = efficiency         |
 |    is independant of the normalisation of dN/dx    |
 |   -The integral of the phase fct / 4 pi over all   |
 |    directions (solid angle) = 1.                   |
 |   -The volume coefficient (k) is equal to C * N    |
 |      = cross section * Number density              |
 |      typical units: [um^2]*[particles/cm^3] =      |
 |      [10^-3 km-1]                                  |
 |      N = M/(d*4/3*pi*r^3) where d is the density   |
 |      of particle, M is the mass per unit volume    |
 |      and 4/3*pi*r^3 is the average volume  of a    |
 |      particle.                                     |
 |      typical units:  M -> [ug/m^3], d -> [g/cm^3]  |
 |                      r -> [um]                     |
 |      Lidar ratio= 4 pi Qe / phase_fct(180)*Qs      |
 |----------------------------------------------------|
