 |--------|------------|
 | ANGLE  |  PHASE FCT |
 |--------|------------|
     0.00   128.81    
     1.00   121.85    
     2.00   103.69    
     3.00   80.641    
     4.00   58.761    
     5.00   41.301    
     6.00   28.722    
     7.00   20.131    
     8.00   14.440    
     9.00   10.752    
    10.00   8.3799    
    11.00   6.8370    
    12.00   5.8125    
    13.00   5.1138    
    14.00   4.6184    
    15.00   4.2512    
    16.00   3.9672    
    17.00   3.7374    
    18.00   3.5435    
    19.00   3.3756    
    20.00   3.2276    
    21.00   3.0942    
    22.00   2.9712    
    23.00   2.8570    
    24.00   2.7509    
    25.00   2.6516    
    26.00   2.5578    
    27.00   2.4686    
    28.00   2.3839    
    29.00   2.3035    
    30.00   2.2268    
    31.00   2.1532    
    32.00   2.0825    
    33.00   2.0149    
    34.00   1.9500    
    35.00   1.8874    
    36.00   1.8270    
    37.00   1.7688    
    38.00   1.7129    
    39.00   1.6588    
    40.00   1.6063    
    41.00   1.5558    
    42.00   1.5070    
    43.00   1.4597    
    44.00   1.4139    
    45.00   1.3696    
    46.00   1.3268    
    47.00   1.2853    
    48.00   1.2450    
    49.00   1.2061    
    50.00   1.1685    
    51.00   1.1320    
    52.00   1.0967    
    53.00   1.0625    
    54.00   1.0294    
    55.00  0.99740    
    56.00  0.96638    
    57.00  0.93641    
    58.00  0.90744    
    59.00  0.87939    
    60.00  0.85227    
    61.00  0.82608    
    62.00  0.80080    
    63.00  0.77636    
    64.00  0.75275    
    65.00  0.73000    
    66.00  0.70805    
    67.00  0.68688    
    68.00  0.66648    
    69.00  0.64683    
    70.00  0.62794    
    71.00  0.60974    
    72.00  0.59224    
    73.00  0.57544    
    74.00  0.55931    
    75.00  0.54382    
    76.00  0.52896    
    77.00  0.51474    
    78.00  0.50112    
    79.00  0.48808    
    80.00  0.47561    
    81.00  0.46371    
    82.00  0.45234    
    83.00  0.44150    
    84.00  0.43116    
    85.00  0.42133    
    86.00  0.41196    
    87.00  0.40307    
    88.00  0.39461    
    89.00  0.38658    
    90.00  0.37897    
    91.00  0.37176    
    92.00  0.36493    
    93.00  0.35847    
    94.00  0.35237    
    95.00  0.34662    
    96.00  0.34119    
    97.00  0.33608    
    98.00  0.33129    
    99.00  0.32678    
   100.00  0.32256    
   101.00  0.31862    
   102.00  0.31494    
   103.00  0.31152    
   104.00  0.30835    
   105.00  0.30541    
   106.00  0.30272    
   107.00  0.30024    
   108.00  0.29799    
   109.00  0.29595    
   110.00  0.29411    
   111.00  0.29248    
   112.00  0.29104    
   113.00  0.28980    
   114.00  0.28874    
   115.00  0.28786    
   116.00  0.28717    
   117.00  0.28665    
   118.00  0.28630    
   119.00  0.28613    
   120.00  0.28613    
   121.00  0.28630    
   122.00  0.28665    
   123.00  0.28717    
   124.00  0.28786    
   125.00  0.28874    
   126.00  0.28980    
   127.00  0.29106    
   128.00  0.29252    
   129.00  0.29420    
   130.00  0.29610    
   131.00  0.29826    
   132.00  0.30067    
   133.00  0.30337    
   134.00  0.30639    
   135.00  0.30974    
   136.00  0.31345    
   137.00  0.31756    
   138.00  0.32210    
   139.00  0.32710    
   140.00  0.33259    
   141.00  0.33859    
   142.00  0.34513    
   143.00  0.35221    
   144.00  0.35983    
   145.00  0.36796    
   146.00  0.37658    
   147.00  0.38559    
   148.00  0.39492    
   149.00  0.40443    
   150.00  0.41399    
   151.00  0.42339    
   152.00  0.43245    
   153.00  0.44098    
   154.00  0.44878    
   155.00  0.45570    
   156.00  0.46170    
   157.00  0.46686    
   158.00  0.47130    
   159.00  0.47536    
   160.00  0.47952    
   161.00  0.48429    
   162.00  0.49024    
   163.00  0.49796    
   164.00  0.50776    
   165.00  0.51938    
   166.00  0.53214    
   167.00  0.54501    
   168.00  0.55655    
   169.00  0.56559    
   170.00  0.57182    
   171.00  0.57483    
   172.00  0.57319    
   173.00  0.56546    
   174.00  0.55173    
   175.00  0.53454    
   176.00  0.52124    
   177.00  0.52378    
   178.00  0.54829    
   179.00  0.58176    
   180.00  0.59761    
 |--------|------------|
0.480000     micron = Wavelength
0.241728     = Extinction efficiency (Q)
0.224629     = Scattering efficiency (Qs)
0.170981E-01 = Absorption efficiency (Qa)
 22.6284     = Lidar ratio
0.956849E-02 micron^2 = <b> = Average surface area per particle
0.231297E-02 microns^2 = Extinction cross section (C)
0.214936E-02 microns^2 = Scattering cross section (Cs)
0.163603E-03 microns^2 = Absorption cross section (Ca)
 |----------------------------------------------------|
 | COMMENTAIRES:                                      |
 |----------------------------------------------------|
 |   -Cross section / <b> should = efficiency         |
 |    is independant of the normalisation of dN/dx    |
 |   -The integral of the phase fct / 4 pi over all   |
 |    directions (solid angle) = 1.                   |
 |   -The volume coefficient (k) is equal to C * N    |
 |      = cross section * Number density              |
 |      typical units: [um^2]*[particles/cm^3] =      |
 |      [10^-3 km-1]                                  |
 |      N = M/(d*4/3*pi*r^3) where d is the density   |
 |      of particle, M is the mass per unit volume    |
 |      and 4/3*pi*r^3 is the average volume  of a    |
 |      particle.                                     |
 |      typical units:  M -> [ug/m^3], d -> [g/cm^3]  |
 |                      r -> [um]                     |
 |      Lidar ratio= 4 pi Qe / phase_fct(180)*Qs      |
 |----------------------------------------------------|
