 |--------|------------|
 | ANGLE  |  PHASE FCT |
 |--------|------------|
     0.00   35.801    
     1.00   35.484    
     2.00   34.561    
     3.00   33.107    
     4.00   31.231    
     5.00   29.058    
     6.00   26.714    
     7.00   24.308    
     8.00   21.933    
     9.00   19.657    
    10.00   17.526    
    11.00   15.571    
    12.00   13.804    
    13.00   12.226    
    14.00   10.832    
    15.00   9.6102    
    16.00   8.5458    
    17.00   7.6228    
    18.00   6.8250    
    19.00   6.1368    
    20.00   5.5434    
    21.00   5.0315    
    22.00   4.5892    
    23.00   4.2061    
    24.00   3.8730    
    25.00   3.5821    
    26.00   3.3268    
    27.00   3.1015    
    28.00   2.9013    
    29.00   2.7225    
    30.00   2.5616    
    31.00   2.4160    
    32.00   2.2835    
    33.00   2.1621    
    34.00   2.0503    
    35.00   1.9470    
    36.00   1.8510    
    37.00   1.7616    
    38.00   1.6779    
    39.00   1.5994    
    40.00   1.5256    
    41.00   1.4560    
    42.00   1.3904    
    43.00   1.3283    
    44.00   1.2696    
    45.00   1.2140    
    46.00   1.1613    
    47.00   1.1113    
    48.00   1.0638    
    49.00   1.0188    
    50.00  0.97594    
    51.00  0.93527    
    52.00  0.89663    
    53.00  0.85989    
    54.00  0.82496    
    55.00  0.79175    
    56.00  0.76017    
    57.00  0.73014    
    58.00  0.70158    
    59.00  0.67441    
    60.00  0.64857    
    61.00  0.62398    
    62.00  0.60059    
    63.00  0.57834    
    64.00  0.55717    
    65.00  0.53702    
    66.00  0.51785    
    67.00  0.49961    
    68.00  0.48225    
    69.00  0.46573    
    70.00  0.45001    
    71.00  0.43505    
    72.00  0.42082    
    73.00  0.40728    
    74.00  0.39439    
    75.00  0.38213    
    76.00  0.37047    
    77.00  0.35938    
    78.00  0.34883    
    79.00  0.33880    
    80.00  0.32926    
    81.00  0.32021    
    82.00  0.31160    
    83.00  0.30343    
    84.00  0.29567    
    85.00  0.28831    
    86.00  0.28133    
    87.00  0.27472    
    88.00  0.26846    
    89.00  0.26253    
    90.00  0.25693    
    91.00  0.25163    
    92.00  0.24664    
    93.00  0.24194    
    94.00  0.23751    
    95.00  0.23335    
    96.00  0.22945    
    97.00  0.22581    
    98.00  0.22240    
    99.00  0.21922    
   100.00  0.21628    
   101.00  0.21355    
   102.00  0.21104    
   103.00  0.20873    
   104.00  0.20663    
   105.00  0.20473    
   106.00  0.20302    
   107.00  0.20149    
   108.00  0.20016    
   109.00  0.19900    
   110.00  0.19802    
   111.00  0.19722    
   112.00  0.19660    
   113.00  0.19614    
   114.00  0.19586    
   115.00  0.19575    
   116.00  0.19581    
   117.00  0.19605    
   118.00  0.19646    
   119.00  0.19704    
   120.00  0.19780    
   121.00  0.19874    
   122.00  0.19987    
   123.00  0.20119    
   124.00  0.20270    
   125.00  0.20442    
   126.00  0.20635    
   127.00  0.20851    
   128.00  0.21090    
   129.00  0.21353    
   130.00  0.21643    
   131.00  0.21961    
   132.00  0.22309    
   133.00  0.22689    
   134.00  0.23104    
   135.00  0.23555    
   136.00  0.24048    
   137.00  0.24584    
   138.00  0.25168    
   139.00  0.25804    
   140.00  0.26496    
   141.00  0.27250    
   142.00  0.28070    
   143.00  0.28961    
   144.00  0.29930    
   145.00  0.30981    
   146.00  0.32118    
   147.00  0.33345    
   148.00  0.34664    
   149.00  0.36075    
   150.00  0.37574    
   151.00  0.39152    
   152.00  0.40798    
   153.00  0.42491    
   154.00  0.44203    
   155.00  0.45899    
   156.00  0.47532    
   157.00  0.49050    
   158.00  0.50389    
   159.00  0.51484    
   160.00  0.52268    
   161.00  0.52680    
   162.00  0.52675    
   163.00  0.52227    
   164.00  0.51346    
   165.00  0.50082    
   166.00  0.48529    
   167.00  0.46825    
   168.00  0.45149    
   169.00  0.43700    
   170.00  0.42685    
   171.00  0.42285    
   172.00  0.42633    
   173.00  0.43781    
   174.00  0.45681    
   175.00  0.48173    
   176.00  0.50985    
   177.00  0.53765    
   178.00  0.56124    
   179.00  0.57709    
   180.00  0.58267    
 |--------|------------|
0.569000     micron = Wavelength
0.111346     = Extinction efficiency (Q)
0.101845     = Scattering efficiency (Qs)
0.950099E-02 = Absorption efficiency (Qa)
 23.5786     = Lidar ratio
0.313422E-02 micron^2 = <b> = Average surface area per particle
0.348984E-03 microns^2 = Extinction cross section (C)
0.319206E-03 microns^2 = Scattering cross section (Cs)
0.297782E-04 microns^2 = Absorption cross section (Ca)
 |----------------------------------------------------|
 | COMMENTAIRES:                                      |
 |----------------------------------------------------|
 |   -Cross section / <b> should = efficiency         |
 |    is independant of the normalisation of dN/dx    |
 |   -The integral of the phase fct / 4 pi over all   |
 |    directions (solid angle) = 1.                   |
 |   -The volume coefficient (k) is equal to C * N    |
 |      = cross section * Number density              |
 |      typical units: [um^2]*[particles/cm^3] =      |
 |      [10^-3 km-1]                                  |
 |      N = M/(d*4/3*pi*r^3) where d is the density   |
 |      of particle, M is the mass per unit volume    |
 |      and 4/3*pi*r^3 is the average volume  of a    |
 |      particle.                                     |
 |      typical units:  M -> [ug/m^3], d -> [g/cm^3]  |
 |                      r -> [um]                     |
 |      Lidar ratio= 4 pi Qe / phase_fct(180)*Qs      |
 |----------------------------------------------------|
