 |--------|------------|
 | ANGLE  |  PHASE FCT |
 |--------|------------|
     0.00   45.100    
     1.00   44.420    
     2.00   42.475    
     3.00   39.512    
     4.00   35.866    
     5.00   31.882    
     6.00   27.853    
     7.00   24.000    
     8.00   20.465    
     9.00   17.326    
    10.00   14.607    
    11.00   12.298    
    12.00   10.368    
    13.00   8.7742    
    14.00   7.4706    
    15.00   6.4117    
    16.00   5.5553    
    17.00   4.8644    
    18.00   4.3073    
    19.00   3.8576    
    20.00   3.4933    
    21.00   3.1968    
    22.00   2.9538    
    23.00   2.7530    
    24.00   2.5853    
    25.00   2.4437    
    26.00   2.3225    
    27.00   2.2173    
    28.00   2.1247    
    29.00   2.0420    
    30.00   1.9672    
    31.00   1.8987    
    32.00   1.8353    
    33.00   1.7760    
    34.00   1.7201    
    35.00   1.6670    
    36.00   1.6163    
    37.00   1.5678    
    38.00   1.5212    
    39.00   1.4762    
    40.00   1.4328    
    41.00   1.3909    
    42.00   1.3503    
    43.00   1.3109    
    44.00   1.2728    
    45.00   1.2359    
    46.00   1.2001    
    47.00   1.1653    
    48.00   1.1317    
    49.00   1.0990    
    50.00   1.0674    
    51.00   1.0367    
    52.00   1.0070    
    53.00  0.97816    
    54.00  0.95026    
    55.00  0.92324    
    56.00  0.89708    
    57.00  0.87175    
    58.00  0.84723    
    59.00  0.82351    
    60.00  0.80056    
    61.00  0.77838    
    62.00  0.75693    
    63.00  0.73619    
    64.00  0.71616    
    65.00  0.69682    
    66.00  0.67814    
    67.00  0.66011    
    68.00  0.64271    
    69.00  0.62594    
    70.00  0.60977    
    71.00  0.59419    
    72.00  0.57919    
    73.00  0.56474    
    74.00  0.55084    
    75.00  0.53748    
    76.00  0.52464    
    77.00  0.51230    
    78.00  0.50047    
    79.00  0.48911    
    80.00  0.47823    
    81.00  0.46781    
    82.00  0.45785    
    83.00  0.44832    
    84.00  0.43922    
    85.00  0.43055    
    86.00  0.42228    
    87.00  0.41441    
    88.00  0.40693    
    89.00  0.39983    
    90.00  0.39311    
    91.00  0.38675    
    92.00  0.38074    
    93.00  0.37508    
    94.00  0.36975    
    95.00  0.36475    
    96.00  0.36008    
    97.00  0.35572    
    98.00  0.35166    
    99.00  0.34789    
   100.00  0.34442    
   101.00  0.34123    
   102.00  0.33832    
   103.00  0.33567    
   104.00  0.33328    
   105.00  0.33115    
   106.00  0.32926    
   107.00  0.32761    
   108.00  0.32620    
   109.00  0.32502    
   110.00  0.32405    
   111.00  0.32331    
   112.00  0.32278    
   113.00  0.32245    
   114.00  0.32233    
   115.00  0.32240    
   116.00  0.32267    
   117.00  0.32313    
   118.00  0.32377    
   119.00  0.32460    
   120.00  0.32561    
   121.00  0.32680    
   122.00  0.32816    
   123.00  0.32971    
   124.00  0.33143    
   125.00  0.33333    
   126.00  0.33542    
   127.00  0.33769    
   128.00  0.34014    
   129.00  0.34280    
   130.00  0.34566    
   131.00  0.34874    
   132.00  0.35205    
   133.00  0.35561    
   134.00  0.35943    
   135.00  0.36355    
   136.00  0.36799    
   137.00  0.37280    
   138.00  0.37801    
   139.00  0.38368    
   140.00  0.38987    
   141.00  0.39666    
   142.00  0.40411    
   143.00  0.41233    
   144.00  0.42141    
   145.00  0.43146    
   146.00  0.44258    
   147.00  0.45488    
   148.00  0.46845    
   149.00  0.48336    
   150.00  0.49966    
   151.00  0.51734    
   152.00  0.53633    
   153.00  0.55645    
   154.00  0.57747    
   155.00  0.59900    
   156.00  0.62055    
   157.00  0.64153    
   158.00  0.66125    
   159.00  0.67903    
   160.00  0.69423    
   161.00  0.70640    
   162.00  0.71537    
   163.00  0.72134    
   164.00  0.72496    
   165.00  0.72726    
   166.00  0.72967    
   167.00  0.73381    
   168.00  0.74148    
   169.00  0.75444    
   170.00  0.77435    
   171.00  0.80265    
   172.00  0.84035    
   173.00  0.88776    
   174.00  0.94409    
   175.00   1.0071    
   176.00   1.0726    
   177.00   1.1348    
   178.00   1.1867    
   179.00   1.2214    
   180.00   1.2336    
 |--------|------------|
0.436000     micron = Wavelength
0.129022     = Extinction efficiency (Q)
0.113477     = Scattering efficiency (Qs)
0.155447E-01 = Absorption efficiency (Qa)
 11.5823     = Lidar ratio
0.302566E-02 micron^2 = <b> = Average surface area per particle
0.390377E-03 microns^2 = Extinction cross section (C)
0.343344E-03 microns^2 = Scattering cross section (Cs)
0.470329E-04 microns^2 = Absorption cross section (Ca)
 |----------------------------------------------------|
 | COMMENTAIRES:                                      |
 |----------------------------------------------------|
 |   -Cross section / <b> should = efficiency         |
 |    is independant of the normalisation of dN/dx    |
 |   -The integral of the phase fct / 4 pi over all   |
 |    directions (solid angle) = 1.                   |
 |   -The volume coefficient (k) is equal to C * N    |
 |      = cross section * Number density              |
 |      typical units: [um^2]*[particles/cm^3] =      |
 |      [10^-3 km-1]                                  |
 |      N = M/(d*4/3*pi*r^3) where d is the density   |
 |      of particle, M is the mass per unit volume    |
 |      and 4/3*pi*r^3 is the average volume  of a    |
 |      particle.                                     |
 |      typical units:  M -> [ug/m^3], d -> [g/cm^3]  |
 |                      r -> [um]                     |
 |      Lidar ratio= 4 pi Qe / phase_fct(180)*Qs      |
 |----------------------------------------------------|
