 |--------|------------|
 | ANGLE  |  PHASE FCT |
 |--------|------------|
     0.00   48.745    
     1.00   47.696    
     2.00   44.747    
     3.00   40.416    
     4.00   35.346    
     5.00   30.123    
     6.00   25.175    
     7.00   20.752    
     8.00   16.965    
     9.00   13.824    
    10.00   11.283    
    11.00   9.2628    
    12.00   7.6788    
    13.00   6.4483    
    14.00   5.4976    
    15.00   4.7648    
    16.00   4.1993    
    17.00   3.7611    
    18.00   3.4190    
    19.00   3.1493    
    20.00   2.9338    
    21.00   2.7592    
    22.00   2.6151    
    23.00   2.4943    
    24.00   2.3909    
    25.00   2.3009    
    26.00   2.2210    
    27.00   2.1490    
    28.00   2.0831    
    29.00   2.0221    
    30.00   1.9649    
    31.00   1.9109    
    32.00   1.8595    
    33.00   1.8103    
    34.00   1.7630    
    35.00   1.7174    
    36.00   1.6732    
    37.00   1.6304    
    38.00   1.5888    
    39.00   1.5484    
    40.00   1.5091    
    41.00   1.4708    
    42.00   1.4335    
    43.00   1.3972    
    44.00   1.3617    
    45.00   1.3271    
    46.00   1.2934    
    47.00   1.2605    
    48.00   1.2285    
    49.00   1.1972    
    50.00   1.1667    
    51.00   1.1369    
    52.00   1.1079    
    53.00   1.0796    
    54.00   1.0521    
    55.00   1.0252    
    56.00  0.99907    
    57.00  0.97360    
    58.00  0.94881    
    59.00  0.92468    
    60.00  0.90121    
    61.00  0.87838    
    62.00  0.85619    
    63.00  0.83464    
    64.00  0.81370    
    65.00  0.79338    
    66.00  0.77366    
    67.00  0.75454    
    68.00  0.73601    
    69.00  0.71805    
    70.00  0.70067    
    71.00  0.68385    
    72.00  0.66759    
    73.00  0.65187    
    74.00  0.63669    
    75.00  0.62205    
    76.00  0.60793    
    77.00  0.59432    
    78.00  0.58123    
    79.00  0.56863    
    80.00  0.55653    
    81.00  0.54491    
    82.00  0.53377    
    83.00  0.52310    
    84.00  0.51289    
    85.00  0.50314    
    86.00  0.49382    
    87.00  0.48495    
    88.00  0.47650    
    89.00  0.46848    
    90.00  0.46087    
    91.00  0.45366    
    92.00  0.44684    
    93.00  0.44042    
    94.00  0.43437    
    95.00  0.42870    
    96.00  0.42339    
    97.00  0.41843    
    98.00  0.41382    
    99.00  0.40954    
   100.00  0.40559    
   101.00  0.40197    
   102.00  0.39866    
   103.00  0.39565    
   104.00  0.39294    
   105.00  0.39051    
   106.00  0.38836    
   107.00  0.38649    
   108.00  0.38488    
   109.00  0.38352    
   110.00  0.38241    
   111.00  0.38155    
   112.00  0.38091    
   113.00  0.38050    
   114.00  0.38031    
   115.00  0.38033    
   116.00  0.38056    
   117.00  0.38099    
   118.00  0.38161    
   119.00  0.38241    
   120.00  0.38340    
   121.00  0.38456    
   122.00  0.38589    
   123.00  0.38740    
   124.00  0.38906    
   125.00  0.39089    
   126.00  0.39287    
   127.00  0.39501    
   128.00  0.39730    
   129.00  0.39975    
   130.00  0.40235    
   131.00  0.40511    
   132.00  0.40802    
   133.00  0.41110    
   134.00  0.41435    
   135.00  0.41779    
   136.00  0.42142    
   137.00  0.42525    
   138.00  0.42932    
   139.00  0.43365    
   140.00  0.43826    
   141.00  0.44321    
   142.00  0.44854    
   143.00  0.45431    
   144.00  0.46059    
   145.00  0.46747    
   146.00  0.47504    
   147.00  0.48340    
   148.00  0.49266    
   149.00  0.50294    
   150.00  0.51435    
   151.00  0.52697    
   152.00  0.54089    
   153.00  0.55611    
   154.00  0.57260    
   155.00  0.59023    
   156.00  0.60873    
   157.00  0.62773    
   158.00  0.64672    
   159.00  0.66513    
   160.00  0.68231    
   161.00  0.69771    
   162.00  0.71094    
   163.00  0.72191    
   164.00  0.73082    
   165.00  0.73817    
   166.00  0.74467    
   167.00  0.75105    
   168.00  0.75802    
   169.00  0.76630    
   170.00  0.77666    
   171.00  0.79007    
   172.00  0.80778    
   173.00  0.83126    
   174.00  0.86170    
   175.00  0.89942    
   176.00  0.94299    
   177.00  0.98850    
   178.00   1.0296    
   179.00   1.0586    
   180.00   1.0691    
 |--------|------------|
0.360000     micron = Wavelength
0.166114     = Extinction efficiency (Q)
0.147300     = Scattering efficiency (Qs)
0.188131E-01 = Absorption efficiency (Qa)
 13.2557     = Lidar ratio
0.302566E-02 micron^2 = <b> = Average surface area per particle
0.502603E-03 microns^2 = Extinction cross section (C)
0.445680E-03 microns^2 = Scattering cross section (Cs)
0.569220E-04 microns^2 = Absorption cross section (Ca)
 |----------------------------------------------------|
 | COMMENTAIRES:                                      |
 |----------------------------------------------------|
 |   -Cross section / <b> should = efficiency         |
 |    is independant of the normalisation of dN/dx    |
 |   -The integral of the phase fct / 4 pi over all   |
 |    directions (solid angle) = 1.                   |
 |   -The volume coefficient (k) is equal to C * N    |
 |      = cross section * Number density              |
 |      typical units: [um^2]*[particles/cm^3] =      |
 |      [10^-3 km-1]                                  |
 |      N = M/(d*4/3*pi*r^3) where d is the density   |
 |      of particle, M is the mass per unit volume    |
 |      and 4/3*pi*r^3 is the average volume  of a    |
 |      particle.                                     |
 |      typical units:  M -> [ug/m^3], d -> [g/cm^3]  |
 |                      r -> [um]                     |
 |      Lidar ratio= 4 pi Qe / phase_fct(180)*Qs      |
 |----------------------------------------------------|
