 |--------|------------|
 | ANGLE  |  PHASE FCT |
 |--------|------------|
     0.00   28.494    
     1.00   28.335    
     2.00   27.870    
     3.00   27.122    
     4.00   26.130    
     5.00   24.940    
     6.00   23.604    
     7.00   22.170    
     8.00   20.684    
     9.00   19.187    
    10.00   17.711    
    11.00   16.281    
    12.00   14.918    
    13.00   13.633    
    14.00   12.435    
    15.00   11.327    
    16.00   10.310    
    17.00   9.3817    
    18.00   8.5384    
    19.00   7.7751    
    20.00   7.0863    
    21.00   6.4662    
    22.00   5.9086    
    23.00   5.4077    
    24.00   4.9579    
    25.00   4.5539    
    26.00   4.1909    
    27.00   3.8643    
    28.00   3.5702    
    29.00   3.3048    
    30.00   3.0650    
    31.00   2.8479    
    32.00   2.6509    
    33.00   2.4718    
    34.00   2.3085    
    35.00   2.1594    
    36.00   2.0229    
    37.00   1.8977    
    38.00   1.7826    
    39.00   1.6765    
    40.00   1.5786    
    41.00   1.4880    
    42.00   1.4041    
    43.00   1.3262    
    44.00   1.2538    
    45.00   1.1864    
    46.00   1.1236    
    47.00   1.0649    
    48.00   1.0101    
    49.00  0.95887    
    50.00  0.91084    
    51.00  0.86583    
    52.00  0.82360    
    53.00  0.78394    
    54.00  0.74667    
    55.00  0.71163    
    56.00  0.67866    
    57.00  0.64762    
    58.00  0.61838    
    59.00  0.59081    
    60.00  0.56482    
    61.00  0.54030    
    62.00  0.51716    
    63.00  0.49531    
    64.00  0.47467    
    65.00  0.45517    
    66.00  0.43673    
    67.00  0.41930    
    68.00  0.40282    
    69.00  0.38723    
    70.00  0.37247    
    71.00  0.35850    
    72.00  0.34528    
    73.00  0.33277    
    74.00  0.32091    
    75.00  0.30968    
    76.00  0.29905    
    77.00  0.28898    
    78.00  0.27943    
    79.00  0.27039    
    80.00  0.26183    
    81.00  0.25371    
    82.00  0.24602    
    83.00  0.23875    
    84.00  0.23185    
    85.00  0.22533    
    86.00  0.21915    
    87.00  0.21331    
    88.00  0.20778    
    89.00  0.20256    
    90.00  0.19762    
    91.00  0.19296    
    92.00  0.18857    
    93.00  0.18443    
    94.00  0.18053    
    95.00  0.17686    
    96.00  0.17341    
    97.00  0.17018    
    98.00  0.16716    
    99.00  0.16433    
   100.00  0.16170    
   101.00  0.15925    
   102.00  0.15698    
   103.00  0.15489    
   104.00  0.15297    
   105.00  0.15121    
   106.00  0.14962    
   107.00  0.14818    
   108.00  0.14689    
   109.00  0.14576    
   110.00  0.14478    
   111.00  0.14395    
   112.00  0.14326    
   113.00  0.14272    
   114.00  0.14232    
   115.00  0.14207    
   116.00  0.14197    
   117.00  0.14201    
   118.00  0.14221    
   119.00  0.14255    
   120.00  0.14305    
   121.00  0.14370    
   122.00  0.14452    
   123.00  0.14550    
   124.00  0.14666    
   125.00  0.14800    
   126.00  0.14952    
   127.00  0.15124    
   128.00  0.15316    
   129.00  0.15530    
   130.00  0.15766    
   131.00  0.16026    
   132.00  0.16312    
   133.00  0.16624    
   134.00  0.16965    
   135.00  0.17336    
   136.00  0.17739    
   137.00  0.18176    
   138.00  0.18649    
   139.00  0.19159    
   140.00  0.19709    
   141.00  0.20301    
   142.00  0.20935    
   143.00  0.21614    
   144.00  0.22337    
   145.00  0.23105    
   146.00  0.23917    
   147.00  0.24769    
   148.00  0.25660    
   149.00  0.26581    
   150.00  0.27526    
   151.00  0.28484    
   152.00  0.29439    
   153.00  0.30376    
   154.00  0.31271    
   155.00  0.32103    
   156.00  0.32842    
   157.00  0.33460    
   158.00  0.33926    
   159.00  0.34211    
   160.00  0.34290    
   161.00  0.34145    
   162.00  0.33769    
   163.00  0.33171    
   164.00  0.32376    
   165.00  0.31429    
   166.00  0.30397    
   167.00  0.29364    
   168.00  0.28426    
   169.00  0.27687    
   170.00  0.27241    
   171.00  0.27164    
   172.00  0.27498    
   173.00  0.28244    
   174.00  0.29349    
   175.00  0.30712    
   176.00  0.32185    
   177.00  0.33596    
   178.00  0.34765    
   179.00  0.35537    
   180.00  0.35807    
 |--------|------------|
0.730000     micron = Wavelength
0.113681     = Extinction efficiency (Q)
0.105948     = Scattering efficiency (Qs)
0.773267E-02 = Absorption efficiency (Qa)
 37.6562     = Lidar ratio
0.336362E-02 micron^2 = <b> = Average surface area per particle
0.382378E-03 microns^2 = Extinction cross section (C)
0.356368E-03 microns^2 = Scattering cross section (Cs)
0.260097E-04 microns^2 = Absorption cross section (Ca)
 |----------------------------------------------------|
 | COMMENTAIRES:                                      |
 |----------------------------------------------------|
 |   -Cross section / <b> should = efficiency         |
 |    is independant of the normalisation of dN/dx    |
 |   -The integral of the phase fct / 4 pi over all   |
 |    directions (solid angle) = 1.                   |
 |   -The volume coefficient (k) is equal to C * N    |
 |      = cross section * Number density              |
 |      typical units: [um^2]*[particles/cm^3] =      |
 |      [10^-3 km-1]                                  |
 |      N = M/(d*4/3*pi*r^3) where d is the density   |
 |      of particle, M is the mass per unit volume    |
 |      and 4/3*pi*r^3 is the average volume  of a    |
 |      particle.                                     |
 |      typical units:  M -> [ug/m^3], d -> [g/cm^3]  |
 |                      r -> [um]                     |
 |      Lidar ratio= 4 pi Qe / phase_fct(180)*Qs      |
 |----------------------------------------------------|
