 |--------|------------|
 | ANGLE  |  PHASE FCT |
 |--------|------------|
     0.00   28.805    
     1.00   28.634    
     2.00   28.129    
     3.00   27.321    
     4.00   26.252    
     5.00   24.976    
     6.00   23.551    
     7.00   22.030    
     8.00   20.465    
     9.00   18.899    
    10.00   17.365    
    11.00   15.892    
    12.00   14.497    
    13.00   13.193    
    14.00   11.986    
    15.00   10.879    
    16.00   9.8711    
    17.00   8.9577    
    18.00   8.1340    
    19.00   7.3940    
    20.00   6.7309    
    21.00   6.1378    
    22.00   5.6078    
    23.00   5.1346    
    24.00   4.7119    
    25.00   4.3341    
    26.00   3.9960    
    27.00   3.6930    
    28.00   3.4210    
    29.00   3.1761    
    30.00   2.9551    
    31.00   2.7552    
    32.00   2.5738    
    33.00   2.4089    
    34.00   2.2584    
    35.00   2.1207    
    36.00   1.9944    
    37.00   1.8782    
    38.00   1.7711    
    39.00   1.6720    
    40.00   1.5803    
    41.00   1.4951    
    42.00   1.4158    
    43.00   1.3420    
    44.00   1.2730    
    45.00   1.2086    
    46.00   1.1483    
    47.00   1.0917    
    48.00   1.0386    
    49.00  0.98876    
    50.00  0.94187    
    51.00  0.89774    
    52.00  0.85617    
    53.00  0.81700    
    54.00  0.78005    
    55.00  0.74518    
    56.00  0.71226    
    57.00  0.68116    
    58.00  0.65176    
    59.00  0.62397    
    60.00  0.59768    
    61.00  0.57281    
    62.00  0.54927    
    63.00  0.52698    
    64.00  0.50587    
    65.00  0.48587    
    66.00  0.46693    
    67.00  0.44897    
    68.00  0.43194    
    69.00  0.41580    
    70.00  0.40049    
    71.00  0.38597    
    72.00  0.37220    
    73.00  0.35913    
    74.00  0.34674    
    75.00  0.33497    
    76.00  0.32381    
    77.00  0.31322    
    78.00  0.30318    
    79.00  0.29364    
    80.00  0.28460    
    81.00  0.27601    
    82.00  0.26787    
    83.00  0.26015    
    84.00  0.25283    
    85.00  0.24589    
    86.00  0.23932    
    87.00  0.23309    
    88.00  0.22719    
    89.00  0.22162    
    90.00  0.21634    
    91.00  0.21136    
    92.00  0.20665    
    93.00  0.20221    
    94.00  0.19802    
    95.00  0.19409    
    96.00  0.19038    
    97.00  0.18691    
    98.00  0.18366    
    99.00  0.18062    
   100.00  0.17778    
   101.00  0.17514    
   102.00  0.17270    
   103.00  0.17044    
   104.00  0.16836    
   105.00  0.16646    
   106.00  0.16473    
   107.00  0.16318    
   108.00  0.16179    
   109.00  0.16056    
   110.00  0.15949    
   111.00  0.15858    
   112.00  0.15783    
   113.00  0.15724    
   114.00  0.15680    
   115.00  0.15652    
   116.00  0.15639    
   117.00  0.15643    
   118.00  0.15662    
   119.00  0.15698    
   120.00  0.15750    
   121.00  0.15820    
   122.00  0.15906    
   123.00  0.16011    
   124.00  0.16135    
   125.00  0.16278    
   126.00  0.16442    
   127.00  0.16627    
   128.00  0.16834    
   129.00  0.17065    
   130.00  0.17321    
   131.00  0.17604    
   132.00  0.17916    
   133.00  0.18257    
   134.00  0.18631    
   135.00  0.19040    
   136.00  0.19485    
   137.00  0.19969    
   138.00  0.20495    
   139.00  0.21066    
   140.00  0.21683    
   141.00  0.22350    
   142.00  0.23068    
   143.00  0.23839    
   144.00  0.24665    
   145.00  0.25546    
   146.00  0.26480    
   147.00  0.27467    
   148.00  0.28500    
   149.00  0.29574    
   150.00  0.30679    
   151.00  0.31802    
   152.00  0.32927    
   153.00  0.34031    
   154.00  0.35092    
   155.00  0.36079    
   156.00  0.36961    
   157.00  0.37702    
   158.00  0.38269    
   159.00  0.38629    
   160.00  0.38755    
   161.00  0.38630    
   162.00  0.38250    
   163.00  0.37632    
   164.00  0.36811    
   165.00  0.35847    
   166.00  0.34823    
   167.00  0.33840    
   168.00  0.33012    
   169.00  0.32456    
   170.00  0.32276    
   171.00  0.32550    
   172.00  0.33316    
   173.00  0.34559    
   174.00  0.36206    
   175.00  0.38122    
   176.00  0.40126    
   177.00  0.42004    
   178.00  0.43540    
   179.00  0.44547    
   180.00  0.44898    
 |--------|------------|
0.680000     micron = Wavelength
0.112016     = Extinction efficiency (Q)
0.103522     = Scattering efficiency (Qs)
0.849388E-02 = Absorption efficiency (Qa)
 30.2853     = Lidar ratio
0.313422E-02 micron^2 = <b> = Average surface area per particle
0.351083E-03 microns^2 = Extinction cross section (C)
0.324461E-03 microns^2 = Scattering cross section (Cs)
0.266217E-04 microns^2 = Absorption cross section (Ca)
 |----------------------------------------------------|
 | COMMENTAIRES:                                      |
 |----------------------------------------------------|
 |   -Cross section / <b> should = efficiency         |
 |    is independant of the normalisation of dN/dx    |
 |   -The integral of the phase fct / 4 pi over all   |
 |    directions (solid angle) = 1.                   |
 |   -The volume coefficient (k) is equal to C * N    |
 |      = cross section * Number density              |
 |      typical units: [um^2]*[particles/cm^3] =      |
 |      [10^-3 km-1]                                  |
 |      N = M/(d*4/3*pi*r^3) where d is the density   |
 |      of particle, M is the mass per unit volume    |
 |      and 4/3*pi*r^3 is the average volume  of a    |
 |      particle.                                     |
 |      typical units:  M -> [ug/m^3], d -> [g/cm^3]  |
 |                      r -> [um]                     |
 |      Lidar ratio= 4 pi Qe / phase_fct(180)*Qs      |
 |----------------------------------------------------|
