 |--------|------------|
 | ANGLE  |  PHASE FCT |
 |--------|------------|
     0.00   162.97    
     1.00   153.87    
     2.00   130.19    
     3.00   100.31    
     4.00   72.213    
     5.00   50.061    
     6.00   34.311    
     7.00   23.684    
     8.00   16.720    
     9.00   12.251    
    10.00   9.4035    
    11.00   7.5647    
    12.00   6.3496    
    13.00   5.5228    
    14.00   4.9362    
    15.00   4.5005    
    16.00   4.1639    
    17.00   3.8920    
    18.00   3.6624    
    19.00   3.4633    
    20.00   3.2886    
    21.00   3.1320    
    22.00   2.9886    
    23.00   2.8559    
    24.00   2.7330    
    25.00   2.6191    
    26.00   2.5123    
    27.00   2.4114    
    28.00   2.3160    
    29.00   2.2262    
    30.00   2.1413    
    31.00   2.0604    
    32.00   1.9831    
    33.00   1.9097    
    34.00   1.8400    
    35.00   1.7732    
    36.00   1.7091    
    37.00   1.6478    
    38.00   1.5894    
    39.00   1.5333    
    40.00   1.4792    
    41.00   1.4274    
    42.00   1.3778    
    43.00   1.3301    
    44.00   1.2841    
    45.00   1.2399    
    46.00   1.1975    
    47.00   1.1567    
    48.00   1.1172    
    49.00   1.0793    
    50.00   1.0430    
    51.00   1.0079    
    52.00  0.97402    
    53.00  0.94145    
    54.00  0.91015    
    55.00  0.87997    
    56.00  0.85085    
    57.00  0.82285    
    58.00  0.79593    
    59.00  0.76998    
    60.00  0.74497    
    61.00  0.72093    
    62.00  0.69783    
    63.00  0.67558    
    64.00  0.65416    
    65.00  0.63358    
    66.00  0.61383    
    67.00  0.59483    
    68.00  0.57656    
    69.00  0.55904    
    70.00  0.54225    
    71.00  0.52613    
    72.00  0.51066    
    73.00  0.49585    
    74.00  0.48169    
    75.00  0.46812    
    76.00  0.45514    
    77.00  0.44276    
    78.00  0.43093    
    79.00  0.41964    
    80.00  0.40887    
    81.00  0.39863    
    82.00  0.38887    
    83.00  0.37959    
    84.00  0.37077    
    85.00  0.36240    
    86.00  0.35446    
    87.00  0.34694    
    88.00  0.33981    
    89.00  0.33306    
    90.00  0.32668    
    91.00  0.32066    
    92.00  0.31496    
    93.00  0.30959    
    94.00  0.30454    
    95.00  0.29978    
    96.00  0.29530    
    97.00  0.29109    
    98.00  0.28715    
    99.00  0.28345    
   100.00  0.27999    
   101.00  0.27676    
   102.00  0.27376    
   103.00  0.27097    
   104.00  0.26838    
   105.00  0.26600    
   106.00  0.26381    
   107.00  0.26180    
   108.00  0.25999    
   109.00  0.25834    
   110.00  0.25687    
   111.00  0.25558    
   112.00  0.25445    
   113.00  0.25348    
   114.00  0.25268    
   115.00  0.25204    
   116.00  0.25156    
   117.00  0.25123    
   118.00  0.25107    
   119.00  0.25107    
   120.00  0.25123    
   121.00  0.25155    
   122.00  0.25204    
   123.00  0.25271    
   124.00  0.25356    
   125.00  0.25459    
   126.00  0.25583    
   127.00  0.25728    
   128.00  0.25896    
   129.00  0.26088    
   130.00  0.26307    
   131.00  0.26555    
   132.00  0.26834    
   133.00  0.27147    
   134.00  0.27498    
   135.00  0.27890    
   136.00  0.28327    
   137.00  0.28813    
   138.00  0.29351    
   139.00  0.29946    
   140.00  0.30601    
   141.00  0.31318    
   142.00  0.32100    
   143.00  0.32945    
   144.00  0.33852    
   145.00  0.34818    
   146.00  0.35835    
   147.00  0.36893    
   148.00  0.37977    
   149.00  0.39070    
   150.00  0.40153    
   151.00  0.41200    
   152.00  0.42186    
   153.00  0.43091    
   154.00  0.43890    
   155.00  0.44566    
   156.00  0.45120    
   157.00  0.45563    
   158.00  0.45917    
   159.00  0.46228    
   160.00  0.46562    
   161.00  0.46988    
   162.00  0.47577    
   163.00  0.48414    
   164.00  0.49550    
   165.00  0.50963    
   166.00  0.52578    
   167.00  0.54268    
   168.00  0.55837    
   169.00  0.57109    
   170.00  0.58025    
   171.00  0.58544    
   172.00  0.58507    
   173.00  0.57750    
   174.00  0.56267    
   175.00  0.54318    
   176.00  0.52762    
   177.00  0.53104    
   178.00  0.56188    
   179.00  0.60421    
   180.00  0.62434    
 |--------|------------|
0.569000     micron = Wavelength
0.236999     = Extinction efficiency (Q)
0.218542     = Scattering efficiency (Qs)
0.184571E-01 = Absorption efficiency (Qa)
 21.8274     = Lidar ratio
0.116584E-01 micron^2 = <b> = Average surface area per particle
0.276304E-02 microns^2 = Extinction cross section (C)
0.254786E-02 microns^2 = Scattering cross section (Cs)
0.215181E-03 microns^2 = Absorption cross section (Ca)
 |----------------------------------------------------|
 | COMMENTAIRES:                                      |
 |----------------------------------------------------|
 |   -Cross section / <b> should = efficiency         |
 |    is independant of the normalisation of dN/dx    |
 |   -The integral of the phase fct / 4 pi over all   |
 |    directions (solid angle) = 1.                   |
 |   -The volume coefficient (k) is equal to C * N    |
 |      = cross section * Number density              |
 |      typical units: [um^2]*[particles/cm^3] =      |
 |      [10^-3 km-1]                                  |
 |      N = M/(d*4/3*pi*r^3) where d is the density   |
 |      of particle, M is the mass per unit volume    |
 |      and 4/3*pi*r^3 is the average volume  of a    |
 |      particle.                                     |
 |      typical units:  M -> [ug/m^3], d -> [g/cm^3]  |
 |                      r -> [um]                     |
 |      Lidar ratio= 4 pi Qe / phase_fct(180)*Qs      |
 |----------------------------------------------------|
