 |--------|------------|
 | ANGLE  |  PHASE FCT |
 |--------|------------|
     0.00   40.874    
     1.00   40.416    
     2.00   39.089    
     3.00   37.026    
     4.00   34.415    
     5.00   31.460    
     6.00   28.353    
     7.00   25.254    
     8.00   22.285    
     9.00   19.527    
    10.00   17.027    
    11.00   14.805    
    12.00   12.860    
    13.00   11.179    
    14.00   9.7410    
    15.00   8.5191    
    16.00   7.4869    
    17.00   6.6183    
    18.00   5.8888    
    19.00   5.2765    
    20.00   4.7620    
    21.00   4.3286    
    22.00   3.9621    
    23.00   3.6504    
    24.00   3.3836    
    25.00   3.1535    
    26.00   2.9532    
    27.00   2.7773    
    28.00   2.6213    
    29.00   2.4817    
    30.00   2.3555    
    31.00   2.2404    
    32.00   2.1348    
    33.00   2.0370    
    34.00   1.9460    
    35.00   1.8609    
    36.00   1.7809    
    37.00   1.7054    
    38.00   1.6340    
    39.00   1.5663    
    40.00   1.5019    
    41.00   1.4407    
    42.00   1.3824    
    43.00   1.3268    
    44.00   1.2737    
    45.00   1.2231    
    46.00   1.1747    
    47.00   1.1285    
    48.00   1.0844    
    49.00   1.0423    
    50.00   1.0021    
    51.00  0.96367    
    52.00  0.92697    
    53.00  0.89193    
    54.00  0.85846    
    55.00  0.82650    
    56.00  0.79599    
    57.00  0.76685    
    58.00  0.73903    
    59.00  0.71247    
    60.00  0.68711    
    61.00  0.66291    
    62.00  0.63981    
    63.00  0.61776    
    64.00  0.59671    
    65.00  0.57662    
    66.00  0.55745    
    67.00  0.53915    
    68.00  0.52169    
    69.00  0.50504    
    70.00  0.48915    
    71.00  0.47399    
    72.00  0.45953    
    73.00  0.44574    
    74.00  0.43259    
    75.00  0.42006    
    76.00  0.40811    
    77.00  0.39672    
    78.00  0.38588    
    79.00  0.37555    
    80.00  0.36572    
    81.00  0.35637    
    82.00  0.34747    
    83.00  0.33901    
    84.00  0.33098    
    85.00  0.32335    
    86.00  0.31611    
    87.00  0.30925    
    88.00  0.30275    
    89.00  0.29660    
    90.00  0.29078    
    91.00  0.28529    
    92.00  0.28011    
    93.00  0.27524    
    94.00  0.27066    
    95.00  0.26636    
    96.00  0.26233    
    97.00  0.25858    
    98.00  0.25508    
    99.00  0.25183    
   100.00  0.24882    
   101.00  0.24605    
   102.00  0.24351    
   103.00  0.24119    
   104.00  0.23908    
   105.00  0.23719    
   106.00  0.23551    
   107.00  0.23403    
   108.00  0.23275    
   109.00  0.23167    
   110.00  0.23077    
   111.00  0.23007    
   112.00  0.22955    
   113.00  0.22921    
   114.00  0.22906    
   115.00  0.22909    
   116.00  0.22930    
   117.00  0.22968    
   118.00  0.23025    
   119.00  0.23100    
   120.00  0.23194    
   121.00  0.23306    
   122.00  0.23437    
   123.00  0.23588    
   124.00  0.23758    
   125.00  0.23949    
   126.00  0.24162    
   127.00  0.24396    
   128.00  0.24654    
   129.00  0.24936    
   130.00  0.25245    
   131.00  0.25580    
   132.00  0.25945    
   133.00  0.26342    
   134.00  0.26772    
   135.00  0.27239    
   136.00  0.27745    
   137.00  0.28295    
   138.00  0.28892    
   139.00  0.29541    
   140.00  0.30246    
   141.00  0.31014    
   142.00  0.31850    
   143.00  0.32761    
   144.00  0.33754    
   145.00  0.34837    
   146.00  0.36018    
   147.00  0.37303    
   148.00  0.38699    
   149.00  0.40211    
   150.00  0.41842    
   151.00  0.43590    
   152.00  0.45449    
   153.00  0.47405    
   154.00  0.49435    
   155.00  0.51507    
   156.00  0.53575    
   157.00  0.55580    
   158.00  0.57451    
   159.00  0.59104    
   160.00  0.60448    
   161.00  0.61392    
   162.00  0.61854    
   163.00  0.61772    
   164.00  0.61121    
   165.00  0.59920    
   166.00  0.58250    
   167.00  0.56250    
   168.00  0.54120    
   169.00  0.52103    
   170.00  0.50461    
   171.00  0.49452    
   172.00  0.49288    
   173.00  0.50094    
   174.00  0.51880    
   175.00  0.54503    
   176.00  0.57667    
   177.00  0.60935    
   178.00  0.63795    
   179.00  0.65755    
   180.00  0.66452    
 |--------|------------|
0.510000     micron = Wavelength
0.113164     = Extinction efficiency (Q)
0.103169     = Scattering efficiency (Qs)
0.999519E-02 = Absorption efficiency (Qa)
 20.7426     = Lidar ratio
0.313422E-02 micron^2 = <b> = Average surface area per particle
0.354680E-03 microns^2 = Extinction cross section (C)
0.323353E-03 microns^2 = Scattering cross section (Cs)
0.313271E-04 microns^2 = Absorption cross section (Ca)
 |----------------------------------------------------|
 | COMMENTAIRES:                                      |
 |----------------------------------------------------|
 |   -Cross section / <b> should = efficiency         |
 |    is independant of the normalisation of dN/dx    |
 |   -The integral of the phase fct / 4 pi over all   |
 |    directions (solid angle) = 1.                   |
 |   -The volume coefficient (k) is equal to C * N    |
 |      = cross section * Number density              |
 |      typical units: [um^2]*[particles/cm^3] =      |
 |      [10^-3 km-1]                                  |
 |      N = M/(d*4/3*pi*r^3) where d is the density   |
 |      of particle, M is the mass per unit volume    |
 |      and 4/3*pi*r^3 is the average volume  of a    |
 |      particle.                                     |
 |      typical units:  M -> [ug/m^3], d -> [g/cm^3]  |
 |                      r -> [um]                     |
 |      Lidar ratio= 4 pi Qe / phase_fct(180)*Qs      |
 |----------------------------------------------------|
