 |--------|------------|
 | ANGLE  |  PHASE FCT |
 |--------|------------|
     0.00   65.626    
     1.00   63.971    
     2.00   59.365    
     3.00   52.725    
     4.00   45.152    
     5.00   37.588    
     6.00   30.656    
     7.00   24.668    
     8.00   19.712    
     9.00   15.738    
    10.00   12.623    
    11.00   10.223    
    12.00   8.3934    
    13.00   7.0086    
    14.00   5.9632    
    15.00   5.1731    
    16.00   4.5732    
    17.00   4.1138    
    18.00   3.7576    
    19.00   3.4769    
    20.00   3.2514    
    21.00   3.0661    
    22.00   2.9103    
    23.00   2.7762    
    24.00   2.6581    
    25.00   2.5521    
    26.00   2.4553    
    27.00   2.3657    
    28.00   2.2818    
    29.00   2.2026    
    30.00   2.1274    
    31.00   2.0556    
    32.00   1.9869    
    33.00   1.9209    
    34.00   1.8574    
    35.00   1.7963    
    36.00   1.7374    
    37.00   1.6805    
    38.00   1.6256    
    39.00   1.5727    
    40.00   1.5216    
    41.00   1.4722    
    42.00   1.4245    
    43.00   1.3785    
    44.00   1.3341    
    45.00   1.2912    
    46.00   1.2498    
    47.00   1.2098    
    48.00   1.1712    
    49.00   1.1340    
    50.00   1.0981    
    51.00   1.0635    
    52.00   1.0301    
    53.00  0.99788    
    54.00  0.96682    
    55.00  0.93689    
    56.00  0.90802    
    57.00  0.88021    
    58.00  0.85342    
    59.00  0.82760    
    60.00  0.80274    
    61.00  0.77881    
    62.00  0.75577    
    63.00  0.73359    
    64.00  0.71226    
    65.00  0.69174    
    66.00  0.67201    
    67.00  0.65305    
    68.00  0.63483    
    69.00  0.61733    
    70.00  0.60053    
    71.00  0.58440    
    72.00  0.56894    
    73.00  0.55410    
    74.00  0.53989    
    75.00  0.52627    
    76.00  0.51323    
    77.00  0.50076    
    78.00  0.48883    
    79.00  0.47743    
    80.00  0.46655    
    81.00  0.45616    
    82.00  0.44625    
    83.00  0.43681    
    84.00  0.42782    
    85.00  0.41927    
    86.00  0.41115    
    87.00  0.40344    
    88.00  0.39612    
    89.00  0.38920    
    90.00  0.38265    
    91.00  0.37647    
    92.00  0.37064    
    93.00  0.36515    
    94.00  0.35999    
    95.00  0.35517    
    96.00  0.35065    
    97.00  0.34644    
    98.00  0.34252    
    99.00  0.33889    
   100.00  0.33555    
   101.00  0.33247    
   102.00  0.32966    
   103.00  0.32711    
   104.00  0.32480    
   105.00  0.32274    
   106.00  0.32092    
   107.00  0.31933    
   108.00  0.31797    
   109.00  0.31682    
   110.00  0.31590    
   111.00  0.31518    
   112.00  0.31467    
   113.00  0.31436    
   114.00  0.31425    
   115.00  0.31434    
   116.00  0.31462    
   117.00  0.31510    
   118.00  0.31576    
   119.00  0.31661    
   120.00  0.31766    
   121.00  0.31889    
   122.00  0.32031    
   123.00  0.32193    
   124.00  0.32374    
   125.00  0.32576    
   126.00  0.32798    
   127.00  0.33041    
   128.00  0.33306    
   129.00  0.33595    
   130.00  0.33907    
   131.00  0.34245    
   132.00  0.34610    
   133.00  0.35002    
   134.00  0.35424    
   135.00  0.35878    
   136.00  0.36365    
   137.00  0.36888    
   138.00  0.37448    
   139.00  0.38048    
   140.00  0.38689    
   141.00  0.39375    
   142.00  0.40106    
   143.00  0.40885    
   144.00  0.41713    
   145.00  0.42593    
   146.00  0.43524    
   147.00  0.44509    
   148.00  0.45548    
   149.00  0.46644    
   150.00  0.47798    
   151.00  0.49013    
   152.00  0.50293    
   153.00  0.51642    
   154.00  0.53065    
   155.00  0.54568    
   156.00  0.56156    
   157.00  0.57829    
   158.00  0.59582    
   159.00  0.61399    
   160.00  0.63247    
   161.00  0.65068    
   162.00  0.66779    
   163.00  0.68268    
   164.00  0.69395    
   165.00  0.70010    
   166.00  0.69971    
   167.00  0.69179    
   168.00  0.67609    
   169.00  0.65335    
   170.00  0.62540    
   171.00  0.59510    
   172.00  0.56610    
   173.00  0.54260    
   174.00  0.52889    
   175.00  0.52835    
   176.00  0.54222    
   177.00  0.56805    
   178.00  0.59882    
   179.00  0.62404    
   180.00  0.63381    
 |--------|------------|
0.498000     micron = Wavelength
0.149858     = Extinction efficiency (Q)
0.138294     = Scattering efficiency (Qs)
0.115634E-01 = Absorption efficiency (Qa)
 21.4846     = Lidar ratio
0.628000E-02 micron^2 = <b> = Average surface area per particle
0.941108E-03 microns^2 = Extinction cross section (C)
0.868490E-03 microns^2 = Scattering cross section (Cs)
0.726179E-04 microns^2 = Absorption cross section (Ca)
 |----------------------------------------------------|
 | COMMENTAIRES:                                      |
 |----------------------------------------------------|
 |   -Cross section / <b> should = efficiency         |
 |    is independant of the normalisation of dN/dx    |
 |   -The integral of the phase fct / 4 pi over all   |
 |    directions (solid angle) = 1.                   |
 |   -The volume coefficient (k) is equal to C * N    |
 |      = cross section * Number density              |
 |      typical units: [um^2]*[particles/cm^3] =      |
 |      [10^-3 km-1]                                  |
 |      N = M/(d*4/3*pi*r^3) where d is the density   |
 |      of particle, M is the mass per unit volume    |
 |      and 4/3*pi*r^3 is the average volume  of a    |
 |      particle.                                     |
 |      typical units:  M -> [ug/m^3], d -> [g/cm^3]  |
 |                      r -> [um]                     |
 |      Lidar ratio= 4 pi Qe / phase_fct(180)*Qs      |
 |----------------------------------------------------|
