 |--------|------------|
 | ANGLE  |  PHASE FCT |
 |--------|------------|
     0.00   54.116    
     1.00   53.251    
     2.00   50.780    
     3.00   47.041    
     4.00   42.480    
     5.00   37.548    
     6.00   32.616    
     7.00   27.956    
     8.00   23.731    
     9.00   20.022    
    10.00   16.843    
    11.00   14.172    
    12.00   11.960    
    13.00   10.147    
    14.00   8.6738    
    15.00   7.4828    
    16.00   6.5225    
    17.00   5.7485    
    18.00   5.1234    
    19.00   4.6163    
    20.00   4.2019    
    21.00   3.8604    
    22.00   3.5755    
    23.00   3.3348    
    24.00   3.1284    
    25.00   2.9489    
    26.00   2.7904    
    27.00   2.6486    
    28.00   2.5200    
    29.00   2.4021    
    30.00   2.2930    
    31.00   2.1913    
    32.00   2.0958    
    33.00   2.0057    
    34.00   1.9204    
    35.00   1.8395    
    36.00   1.7624    
    37.00   1.6890    
    38.00   1.6189    
    39.00   1.5521    
    40.00   1.4882    
    41.00   1.4272    
    42.00   1.3689    
    43.00   1.3133    
    44.00   1.2601    
    45.00   1.2093    
    46.00   1.1609    
    47.00   1.1146    
    48.00   1.0704    
    49.00   1.0283    
    50.00  0.98806    
    51.00  0.94969    
    52.00  0.91310    
    53.00  0.87820    
    54.00  0.84491    
    55.00  0.81317    
    56.00  0.78291    
    57.00  0.75406    
    58.00  0.72655    
    59.00  0.70033    
    60.00  0.67533    
    61.00  0.65150    
    62.00  0.62879    
    63.00  0.60714    
    64.00  0.58651    
    65.00  0.56684    
    66.00  0.54810    
    67.00  0.53024    
    68.00  0.51323    
    69.00  0.49702    
    70.00  0.48157    
    71.00  0.46686    
    72.00  0.45286    
    73.00  0.43952    
    74.00  0.42681    
    75.00  0.41473    
    76.00  0.40322    
    77.00  0.39228    
    78.00  0.38187    
    79.00  0.37198    
    80.00  0.36257    
    81.00  0.35365    
    82.00  0.34517    
    83.00  0.33712    
    84.00  0.32949    
    85.00  0.32227    
    86.00  0.31542    
    87.00  0.30895    
    88.00  0.30283    
    89.00  0.29705    
    90.00  0.29160    
    91.00  0.28647    
    92.00  0.28165    
    93.00  0.27712    
    94.00  0.27288    
    95.00  0.26891    
    96.00  0.26521    
    97.00  0.26177    
    98.00  0.25858    
    99.00  0.25563    
   100.00  0.25292    
   101.00  0.25044    
   102.00  0.24818    
   103.00  0.24614    
   104.00  0.24431    
   105.00  0.24269    
   106.00  0.24127    
   107.00  0.24005    
   108.00  0.23903    
   109.00  0.23819    
   110.00  0.23755    
   111.00  0.23709    
   112.00  0.23681    
   113.00  0.23672    
   114.00  0.23681    
   115.00  0.23708    
   116.00  0.23753    
   117.00  0.23816    
   118.00  0.23897    
   119.00  0.23997    
   120.00  0.24115    
   121.00  0.24252    
   122.00  0.24409    
   123.00  0.24586    
   124.00  0.24783    
   125.00  0.25001    
   126.00  0.25241    
   127.00  0.25503    
   128.00  0.25789    
   129.00  0.26100    
   130.00  0.26437    
   131.00  0.26801    
   132.00  0.27193    
   133.00  0.27616    
   134.00  0.28070    
   135.00  0.28559    
   136.00  0.29083    
   137.00  0.29645    
   138.00  0.30247    
   139.00  0.30891    
   140.00  0.31581    
   141.00  0.32318    
   142.00  0.33107    
   143.00  0.33949    
   144.00  0.34849    
   145.00  0.35810    
   146.00  0.36837    
   147.00  0.37934    
   148.00  0.39106    
   149.00  0.40359    
   150.00  0.41698    
   151.00  0.43131    
   152.00  0.44659    
   153.00  0.46289    
   154.00  0.48018    
   155.00  0.49843    
   156.00  0.51749    
   157.00  0.53713    
   158.00  0.55696    
   159.00  0.57640    
   160.00  0.59468    
   161.00  0.61080    
   162.00  0.62355    
   163.00  0.63161    
   164.00  0.63367    
   165.00  0.62858    
   166.00  0.61565    
   167.00  0.59489    
   168.00  0.56724    
   169.00  0.53474    
   170.00  0.50038    
   171.00  0.46795    
   172.00  0.44155    
   173.00  0.42496    
   174.00  0.42088    
   175.00  0.43012    
   176.00  0.45097    
   177.00  0.47891    
   178.00  0.50718    
   179.00  0.52822    
   180.00  0.53600    
 |--------|------------|
0.630000     micron = Wavelength
0.123077     = Extinction efficiency (Q)
0.113329     = Scattering efficiency (Qs)
0.974798E-02 = Absorption efficiency (Qa)
 25.4611     = Lidar ratio
0.628001E-02 micron^2 = <b> = Average surface area per particle
0.772928E-03 microns^2 = Extinction cross section (C)
0.711710E-03 microns^2 = Scattering cross section (Cs)
0.612174E-04 microns^2 = Absorption cross section (Ca)
 |----------------------------------------------------|
 | COMMENTAIRES:                                      |
 |----------------------------------------------------|
 |   -Cross section / <b> should = efficiency         |
 |    is independant of the normalisation of dN/dx    |
 |   -The integral of the phase fct / 4 pi over all   |
 |    directions (solid angle) = 1.                   |
 |   -The volume coefficient (k) is equal to C * N    |
 |      = cross section * Number density              |
 |      typical units: [um^2]*[particles/cm^3] =      |
 |      [10^-3 km-1]                                  |
 |      N = M/(d*4/3*pi*r^3) where d is the density   |
 |      of particle, M is the mass per unit volume    |
 |      and 4/3*pi*r^3 is the average volume  of a    |
 |      particle.                                     |
 |      typical units:  M -> [ug/m^3], d -> [g/cm^3]  |
 |                      r -> [um]                     |
 |      Lidar ratio= 4 pi Qe / phase_fct(180)*Qs      |
 |----------------------------------------------------|
