 |--------|------------|
 | ANGLE  |  PHASE FCT |
 |--------|------------|
     0.00   67.721    
     1.00   65.980    
     2.00   61.145    
     3.00   54.190    
     4.00   46.285    
     5.00   38.420    
     6.00   31.242    
     7.00   25.069    
     8.00   19.981    
     9.00   15.919    
    10.00   12.748    
    11.00   10.313    
    12.00   8.4641    
    13.00   7.0688    
    14.00   6.0185    
    15.00   5.2265    
    16.00   4.6261    
    17.00   4.1667    
    18.00   3.8104    
    19.00   3.5292    
    20.00   3.3027    
    21.00   3.1159    
    22.00   2.9581    
    23.00   2.8215    
    24.00   2.7008    
    25.00   2.5919    
    26.00   2.4920    
    27.00   2.3993    
    28.00   2.3123    
    29.00   2.2301    
    30.00   2.1519    
    31.00   2.0772    
    32.00   2.0057    
    33.00   1.9371    
    34.00   1.8711    
    35.00   1.8075    
    36.00   1.7463    
    37.00   1.6874    
    38.00   1.6306    
    39.00   1.5758    
    40.00   1.5230    
    41.00   1.4720    
    42.00   1.4229    
    43.00   1.3756    
    44.00   1.3299    
    45.00   1.2859    
    46.00   1.2435    
    47.00   1.2027    
    48.00   1.1633    
    49.00   1.1253    
    50.00   1.0888    
    51.00   1.0536    
    52.00   1.0196    
    53.00  0.98698    
    54.00  0.95554    
    55.00  0.92526    
    56.00  0.89612    
    57.00  0.86807    
    58.00  0.84108    
    59.00  0.81512    
    60.00  0.79014    
    61.00  0.76612    
    62.00  0.74303    
    63.00  0.72082    
    64.00  0.69948    
    65.00  0.67898    
    66.00  0.65930    
    67.00  0.64039    
    68.00  0.62224    
    69.00  0.60483    
    70.00  0.58813    
    71.00  0.57212    
    72.00  0.55677    
    73.00  0.54207    
    74.00  0.52800    
    75.00  0.51453    
    76.00  0.50164    
    77.00  0.48933    
    78.00  0.47756    
    79.00  0.46633    
    80.00  0.45561    
    81.00  0.44539    
    82.00  0.43566    
    83.00  0.42639    
    84.00  0.41757    
    85.00  0.40919    
    86.00  0.40124    
    87.00  0.39370    
    88.00  0.38655    
    89.00  0.37980    
    90.00  0.37341    
    91.00  0.36738    
    92.00  0.36171    
    93.00  0.35637    
    94.00  0.35137    
    95.00  0.34668    
    96.00  0.34229    
    97.00  0.33821    
    98.00  0.33442    
    99.00  0.33091    
   100.00  0.32768    
   101.00  0.32471    
   102.00  0.32200    
   103.00  0.31954    
   104.00  0.31733    
   105.00  0.31535    
   106.00  0.31361    
   107.00  0.31209    
   108.00  0.31079    
   109.00  0.30971    
   110.00  0.30884    
   111.00  0.30818    
   112.00  0.30772    
   113.00  0.30746    
   114.00  0.30740    
   115.00  0.30753    
   116.00  0.30786    
   117.00  0.30838    
   118.00  0.30908    
   119.00  0.30998    
   120.00  0.31107    
   121.00  0.31235    
   122.00  0.31382    
   123.00  0.31550    
   124.00  0.31737    
   125.00  0.31945    
   126.00  0.32175    
   127.00  0.32426    
   128.00  0.32701    
   129.00  0.32999    
   130.00  0.33323    
   131.00  0.33673    
   132.00  0.34051    
   133.00  0.34458    
   134.00  0.34895    
   135.00  0.35366    
   136.00  0.35871    
   137.00  0.36412    
   138.00  0.36991    
   139.00  0.37610    
   140.00  0.38271    
   141.00  0.38975    
   142.00  0.39722    
   143.00  0.40515    
   144.00  0.41353    
   145.00  0.42236    
   146.00  0.43164    
   147.00  0.44137    
   148.00  0.45153    
   149.00  0.46211    
   150.00  0.47311    
   151.00  0.48453    
   152.00  0.49637    
   153.00  0.50866    
   154.00  0.52145    
   155.00  0.53479    
   156.00  0.54875    
   157.00  0.56341    
   158.00  0.57878    
   159.00  0.59481    
   160.00  0.61133    
   161.00  0.62794    
   162.00  0.64398    
   163.00  0.65849    
   164.00  0.67017    
   165.00  0.67748    
   166.00  0.67888    
   167.00  0.67308    
   168.00  0.65946    
   169.00  0.63838    
   170.00  0.61147    
   171.00  0.58159    
   172.00  0.55258    
   173.00  0.52896    
   174.00  0.51529    
   175.00  0.51523    
   176.00  0.53011    
   177.00  0.55742    
   178.00  0.58984    
   179.00  0.61638    
   180.00  0.62666    
 |--------|------------|
0.540000     micron = Wavelength
0.148609     = Extinction efficiency (Q)
0.137575     = Scattering efficiency (Qs)
0.110345E-01 = Absorption efficiency (Qa)
 21.6613     = Lidar ratio
0.747900E-02 micron^2 = <b> = Average surface area per particle
0.111145E-02 microns^2 = Extinction cross section (C)
0.102892E-02 microns^2 = Scattering cross section (Cs)
0.825267E-04 microns^2 = Absorption cross section (Ca)
 |----------------------------------------------------|
 | COMMENTAIRES:                                      |
 |----------------------------------------------------|
 |   -Cross section / <b> should = efficiency         |
 |    is independant of the normalisation of dN/dx    |
 |   -The integral of the phase fct / 4 pi over all   |
 |    directions (solid angle) = 1.                   |
 |   -The volume coefficient (k) is equal to C * N    |
 |      = cross section * Number density              |
 |      typical units: [um^2]*[particles/cm^3] =      |
 |      [10^-3 km-1]                                  |
 |      N = M/(d*4/3*pi*r^3) where d is the density   |
 |      of particle, M is the mass per unit volume    |
 |      and 4/3*pi*r^3 is the average volume  of a    |
 |      particle.                                     |
 |      typical units:  M -> [ug/m^3], d -> [g/cm^3]  |
 |                      r -> [um]                     |
 |      Lidar ratio= 4 pi Qe / phase_fct(180)*Qs      |
 |----------------------------------------------------|
