 |--------|------------|
 | ANGLE  |  PHASE FCT |
 |--------|------------|
     0.00   53.813    
     1.00   52.981    
     2.00   50.602    
     3.00   46.995    
     4.00   42.579    
     5.00   37.781    
     6.00   32.962    
     7.00   28.384    
     8.00   24.212    
     9.00   20.527    
    10.00   17.353    
    11.00   14.669    
    12.00   12.433    
    13.00   10.590    
    14.00   9.0831    
    15.00   7.8572    
    16.00   6.8627    
    17.00   6.0559    
    18.00   5.4001    
    19.00   4.8647    
    20.00   4.4244    
    21.00   4.0591    
    22.00   3.7528    
    23.00   3.4926    
    24.00   3.2685    
    25.00   3.0730    
    26.00   2.8999    
    27.00   2.7448    
    28.00   2.6042    
    29.00   2.4753    
    30.00   2.3563    
    31.00   2.2454    
    32.00   2.1416    
    33.00   2.0440    
    34.00   1.9518    
    35.00   1.8645    
    36.00   1.7818    
    37.00   1.7031    
    38.00   1.6284    
    39.00   1.5572    
    40.00   1.4895    
    41.00   1.4250    
    42.00   1.3636    
    43.00   1.3051    
    44.00   1.2494    
    45.00   1.1964    
    46.00   1.1460    
    47.00   1.0979    
    48.00   1.0522    
    49.00   1.0087    
    50.00  0.96734    
    51.00  0.92798    
    52.00  0.89052    
    53.00  0.85490    
    54.00  0.82101    
    55.00  0.78878    
    56.00  0.75813    
    57.00  0.72898    
    58.00  0.70125    
    59.00  0.67488    
    60.00  0.64981    
    61.00  0.62596    
    62.00  0.60328    
    63.00  0.58172    
    64.00  0.56120    
    65.00  0.54169    
    66.00  0.52314    
    67.00  0.50550    
    68.00  0.48872    
    69.00  0.47277    
    70.00  0.45760    
    71.00  0.44318    
    72.00  0.42947    
    73.00  0.41644    
    74.00  0.40405    
    75.00  0.39229    
    76.00  0.38111    
    77.00  0.37049    
    78.00  0.36041    
    79.00  0.35084    
    80.00  0.34176    
    81.00  0.33315    
    82.00  0.32498    
    83.00  0.31725    
    84.00  0.30992    
    85.00  0.30299    
    86.00  0.29643    
    87.00  0.29024    
    88.00  0.28439    
    89.00  0.27888    
    90.00  0.27369    
    91.00  0.26880    
    92.00  0.26421    
    93.00  0.25991    
    94.00  0.25589    
    95.00  0.25213    
    96.00  0.24863    
    97.00  0.24537    
    98.00  0.24236    
    99.00  0.23958    
   100.00  0.23703    
   101.00  0.23470    
   102.00  0.23258    
   103.00  0.23067    
   104.00  0.22896    
   105.00  0.22745    
   106.00  0.22614    
   107.00  0.22501    
   108.00  0.22408    
   109.00  0.22333    
   110.00  0.22276    
   111.00  0.22237    
   112.00  0.22216    
   113.00  0.22212    
   114.00  0.22226    
   115.00  0.22258    
   116.00  0.22308    
   117.00  0.22375    
   118.00  0.22461    
   119.00  0.22564    
   120.00  0.22687    
   121.00  0.22827    
   122.00  0.22988    
   123.00  0.23168    
   124.00  0.23368    
   125.00  0.23590    
   126.00  0.23833    
   127.00  0.24099    
   128.00  0.24389    
   129.00  0.24704    
   130.00  0.25044    
   131.00  0.25412    
   132.00  0.25808    
   133.00  0.26234    
   134.00  0.26691    
   135.00  0.27181    
   136.00  0.27706    
   137.00  0.28268    
   138.00  0.28869    
   139.00  0.29509    
   140.00  0.30192    
   141.00  0.30919    
   142.00  0.31693    
   143.00  0.32516    
   144.00  0.33391    
   145.00  0.34319    
   146.00  0.35304    
   147.00  0.36350    
   148.00  0.37459    
   149.00  0.38636    
   150.00  0.39885    
   151.00  0.41211    
   152.00  0.42616    
   153.00  0.44104    
   154.00  0.45675    
   155.00  0.47326    
   156.00  0.49045    
   157.00  0.50814    
   158.00  0.52600    
   159.00  0.54356    
   160.00  0.56011    
   161.00  0.57477    
   162.00  0.58644    
   163.00  0.59388    
   164.00  0.59582    
   165.00  0.59108    
   166.00  0.57890    
   167.00  0.55911    
   168.00  0.53248    
   169.00  0.50082    
   170.00  0.46700    
   171.00  0.43476    
   172.00  0.40822    
   173.00  0.39125    
   174.00  0.38664    
   175.00  0.39525    
   176.00  0.41540    
   177.00  0.44261    
   178.00  0.47019    
   179.00  0.49073    
   180.00  0.49833    
 |--------|------------|
0.700000     micron = Wavelength
0.121903     = Extinction efficiency (Q)
0.113142     = Scattering efficiency (Qs)
0.876126E-02 = Absorption efficiency (Qa)
 27.1697     = Lidar ratio
0.747900E-02 micron^2 = <b> = Average surface area per particle
0.911711E-03 microns^2 = Extinction cross section (C)
0.846186E-03 microns^2 = Scattering cross section (Cs)
0.655255E-04 microns^2 = Absorption cross section (Ca)
 |----------------------------------------------------|
 | COMMENTAIRES:                                      |
 |----------------------------------------------------|
 |   -Cross section / <b> should = efficiency         |
 |    is independant of the normalisation of dN/dx    |
 |   -The integral of the phase fct / 4 pi over all   |
 |    directions (solid angle) = 1.                   |
 |   -The volume coefficient (k) is equal to C * N    |
 |      = cross section * Number density              |
 |      typical units: [um^2]*[particles/cm^3] =      |
 |      [10^-3 km-1]                                  |
 |      N = M/(d*4/3*pi*r^3) where d is the density   |
 |      of particle, M is the mass per unit volume    |
 |      and 4/3*pi*r^3 is the average volume  of a    |
 |      particle.                                     |
 |      typical units:  M -> [ug/m^3], d -> [g/cm^3]  |
 |                      r -> [um]                     |
 |      Lidar ratio= 4 pi Qe / phase_fct(180)*Qs      |
 |----------------------------------------------------|
