 |--------|------------|
 | ANGLE  |  PHASE FCT |
 |--------|------------|
     0.00   127.84    
     1.00   121.34    
     2.00   104.26    
     3.00   82.307    
     4.00   61.061    
     5.00   43.684    
     6.00   30.824    
     7.00   21.818    
     8.00   15.715    
     9.00   11.676    
    10.00   9.0291    
    11.00   7.2843    
    12.00   6.1168    
    13.00   5.3183    
    14.00   4.7542    
    15.00   4.3397    
    16.00   4.0228    
    17.00   3.7700    
    18.00   3.5597    
    19.00   3.3798    
    20.00   3.2225    
    21.00   3.0817    
    22.00   2.9529    
    23.00   2.8340    
    24.00   2.7239    
    25.00   2.6211    
    26.00   2.5244    
    27.00   2.4327    
    28.00   2.3459    
    29.00   2.2637    
    30.00   2.1856    
    31.00   2.1107    
    32.00   2.0391    
    33.00   1.9707    
    34.00   1.9052    
    35.00   1.8421    
    36.00   1.7814    
    37.00   1.7232    
    38.00   1.6672    
    39.00   1.6131    
    40.00   1.5609    
    41.00   1.5106    
    42.00   1.4622    
    43.00   1.4153    
    44.00   1.3700    
    45.00   1.3263    
    46.00   1.2841    
    47.00   1.2433    
    48.00   1.2037    
    49.00   1.1656    
    50.00   1.1287    
    51.00   1.0930    
    52.00   1.0585    
    53.00   1.0252    
    54.00  0.99298    
    55.00  0.96183    
    56.00  0.93170    
    57.00  0.90262    
    58.00  0.87454    
    59.00  0.84739    
    60.00  0.82117    
    61.00  0.79588    
    62.00  0.77148    
    63.00  0.74793    
    64.00  0.72520    
    65.00  0.70331    
    66.00  0.68222    
    67.00  0.66189    
    68.00  0.64232    
    69.00  0.62350    
    70.00  0.60540    
    71.00  0.58799    
    72.00  0.57126    
    73.00  0.55520    
    74.00  0.53981    
    75.00  0.52503    
    76.00  0.51087    
    77.00  0.49732    
    78.00  0.48436    
    79.00  0.47195    
    80.00  0.46010    
    81.00  0.44879    
    82.00  0.43801    
    83.00  0.42772    
    84.00  0.41792    
    85.00  0.40860    
    86.00  0.39974    
    87.00  0.39132    
    88.00  0.38332    
    89.00  0.37574    
    90.00  0.36855    
    91.00  0.36175    
    92.00  0.35532    
    93.00  0.34924    
    94.00  0.34350    
    95.00  0.33809    
    96.00  0.33299    
    97.00  0.32820    
    98.00  0.32371    
    99.00  0.31950    
   100.00  0.31556    
   101.00  0.31188    
   102.00  0.30847    
   103.00  0.30529    
   104.00  0.30236    
   105.00  0.29965    
   106.00  0.29717    
   107.00  0.29491    
   108.00  0.29286    
   109.00  0.29101    
   110.00  0.28937    
   111.00  0.28791    
   112.00  0.28665    
   113.00  0.28558    
   114.00  0.28469    
   115.00  0.28397    
   116.00  0.28344    
   117.00  0.28308    
   118.00  0.28289    
   119.00  0.28287    
   120.00  0.28303    
   121.00  0.28335    
   122.00  0.28385    
   123.00  0.28453    
   124.00  0.28539    
   125.00  0.28643    
   126.00  0.28767    
   127.00  0.28911    
   128.00  0.29076    
   129.00  0.29264    
   130.00  0.29476    
   131.00  0.29714    
   132.00  0.29980    
   133.00  0.30276    
   134.00  0.30605    
   135.00  0.30969    
   136.00  0.31371    
   137.00  0.31815    
   138.00  0.32304    
   139.00  0.32841    
   140.00  0.33428    
   141.00  0.34069    
   142.00  0.34765    
   143.00  0.35517    
   144.00  0.36323    
   145.00  0.37182    
   146.00  0.38090    
   147.00  0.39039    
   148.00  0.40018    
   149.00  0.41018    
   150.00  0.42021    
   151.00  0.43010    
   152.00  0.43965    
   153.00  0.44870    
   154.00  0.45704    
   155.00  0.46456    
   156.00  0.47124    
   157.00  0.47714    
   158.00  0.48246    
   159.00  0.48753    
   160.00  0.49285    
   161.00  0.49893    
   162.00  0.50633    
   163.00  0.51554    
   164.00  0.52678    
   165.00  0.53963    
   166.00  0.55324    
   167.00  0.56630    
   168.00  0.57719    
   169.00  0.58462    
   170.00  0.58812    
   171.00  0.58739    
   172.00  0.58154    
   173.00  0.57002    
   174.00  0.55396    
   175.00  0.53706    
   176.00  0.52710    
   177.00  0.53471    
   178.00  0.56349    
   179.00  0.59902    
   180.00  0.61532    
 |--------|------------|
0.500000     micron = Wavelength
0.227876     = Extinction efficiency (Q)
0.211401     = Scattering efficiency (Qs)
0.164746E-01 = Absorption efficiency (Qa)
 22.0140     = Lidar ratio
0.956905E-02 micron^2 = <b> = Average surface area per particle
0.218055E-02 microns^2 = Extinction cross section (C)
0.202291E-02 microns^2 = Scattering cross section (Cs)
0.157646E-03 microns^2 = Absorption cross section (Ca)
 |----------------------------------------------------|
 | COMMENTAIRES:                                      |
 |----------------------------------------------------|
 |   -Cross section / <b> should = efficiency         |
 |    is independant of the normalisation of dN/dx    |
 |   -The integral of the phase fct / 4 pi over all   |
 |    directions (solid angle) = 1.                   |
 |   -The volume coefficient (k) is equal to C * N    |
 |      = cross section * Number density              |
 |      typical units: [um^2]*[particles/cm^3] =      |
 |      [10^-3 km-1]                                  |
 |      N = M/(d*4/3*pi*r^3) where d is the density   |
 |      of particle, M is the mass per unit volume    |
 |      and 4/3*pi*r^3 is the average volume  of a    |
 |      particle.                                     |
 |      typical units:  M -> [ug/m^3], d -> [g/cm^3]  |
 |                      r -> [um]                     |
 |      Lidar ratio= 4 pi Qe / phase_fct(180)*Qs      |
 |----------------------------------------------------|
