 |--------|------------|
 | ANGLE  |  PHASE FCT |
 |--------|------------|
     0.00   30.882    
     1.00   30.682    
     2.00   30.094    
     3.00   29.156    
     4.00   27.922    
     5.00   26.458    
     6.00   24.834    
     7.00   23.114    
     8.00   21.359    
     9.00   19.617    
    10.00   17.927    
    11.00   16.317    
    12.00   14.807    
    13.00   13.407    
    14.00   12.123    
    15.00   10.955    
    16.00   9.8994    
    17.00   8.9507    
    18.00   8.1017    
    19.00   7.3441    
    20.00   6.6697    
    21.00   6.0701    
    22.00   5.5374    
    23.00   5.0639    
    24.00   4.6429    
    25.00   4.2679    
    26.00   3.9335    
    27.00   3.6344    
    28.00   3.3664    
    29.00   3.1255    
    30.00   2.9083    
    31.00   2.7120    
    32.00   2.5339    
    33.00   2.3718    
    34.00   2.2238    
    35.00   2.0884    
    36.00   1.9640    
    37.00   1.8496    
    38.00   1.7439    
    39.00   1.6461    
    40.00   1.5554    
    41.00   1.4711    
    42.00   1.3927    
    43.00   1.3195    
    44.00   1.2512    
    45.00   1.1873    
    46.00   1.1274    
    47.00   1.0713    
    48.00   1.0187    
    49.00  0.96919    
    50.00  0.92267    
    51.00  0.87890    
    52.00  0.83769    
    53.00  0.79887    
    54.00  0.76226    
    55.00  0.72774    
    56.00  0.69517    
    57.00  0.66442    
    58.00  0.63539    
    59.00  0.60795    
    60.00  0.58202    
    61.00  0.55751    
    62.00  0.53433    
    63.00  0.51241    
    64.00  0.49166    
    65.00  0.47202    
    66.00  0.45343    
    67.00  0.43583    
    68.00  0.41916    
    69.00  0.40337    
    70.00  0.38840    
    71.00  0.37423    
    72.00  0.36079    
    73.00  0.34806    
    74.00  0.33599    
    75.00  0.32455    
    76.00  0.31370    
    77.00  0.30341    
    78.00  0.29366    
    79.00  0.28442    
    80.00  0.27566    
    81.00  0.26736    
    82.00  0.25949    
    83.00  0.25203    
    84.00  0.24497    
    85.00  0.23828    
    86.00  0.23195    
    87.00  0.22596    
    88.00  0.22029    
    89.00  0.21494    
    90.00  0.20988    
    91.00  0.20510    
    92.00  0.20059    
    93.00  0.19635    
    94.00  0.19236    
    95.00  0.18860    
    96.00  0.18508    
    97.00  0.18178    
    98.00  0.17869    
    99.00  0.17581    
   100.00  0.17313    
   101.00  0.17064    
   102.00  0.16834    
   103.00  0.16622    
   104.00  0.16428    
   105.00  0.16252    
   106.00  0.16092    
   107.00  0.15948    
   108.00  0.15821    
   109.00  0.15710    
   110.00  0.15614    
   111.00  0.15534    
   112.00  0.15469    
   113.00  0.15419    
   114.00  0.15385    
   115.00  0.15366    
   116.00  0.15362    
   117.00  0.15373    
   118.00  0.15400    
   119.00  0.15443    
   120.00  0.15501    
   121.00  0.15576    
   122.00  0.15668    
   123.00  0.15778    
   124.00  0.15905    
   125.00  0.16051    
   126.00  0.16217    
   127.00  0.16402    
   128.00  0.16610    
   129.00  0.16839    
   130.00  0.17093    
   131.00  0.17372    
   132.00  0.17677    
   133.00  0.18011    
   134.00  0.18376    
   135.00  0.18773    
   136.00  0.19205    
   137.00  0.19673    
   138.00  0.20182    
   139.00  0.20732    
   140.00  0.21327    
   141.00  0.21970    
   142.00  0.22663    
   143.00  0.23409    
   144.00  0.24208    
   145.00  0.25064    
   146.00  0.25976    
   147.00  0.26944    
   148.00  0.27965    
   149.00  0.29034    
   150.00  0.30146    
   151.00  0.31290    
   152.00  0.32451    
   153.00  0.33611    
   154.00  0.34747    
   155.00  0.35830    
   156.00  0.36827    
   157.00  0.37701    
   158.00  0.38411    
   159.00  0.38918    
   160.00  0.39181    
   161.00  0.39169    
   162.00  0.38863    
   163.00  0.38259    
   164.00  0.37376    
   165.00  0.36259    
   166.00  0.34981    
   167.00  0.33642    
   168.00  0.32363    
   169.00  0.31277    
   170.00  0.30516    
   171.00  0.30190    
   172.00  0.30373    
   173.00  0.31085    
   174.00  0.32278    
   175.00  0.33836    
   176.00  0.35580    
   177.00  0.37287    
   178.00  0.38724    
   179.00  0.39683    
   180.00  0.40019    
 |--------|------------|
0.680000     micron = Wavelength
0.113109     = Extinction efficiency (Q)
0.105221     = Scattering efficiency (Qs)
0.788833E-02 = Absorption efficiency (Qa)
 33.7547     = Lidar ratio
0.336363E-02 micron^2 = <b> = Average surface area per particle
0.380458E-03 microns^2 = Extinction cross section (C)
0.353925E-03 microns^2 = Scattering cross section (Cs)
0.265334E-04 microns^2 = Absorption cross section (Ca)
 |----------------------------------------------------|
 | COMMENTAIRES:                                      |
 |----------------------------------------------------|
 |   -Cross section / <b> should = efficiency         |
 |    is independant of the normalisation of dN/dx    |
 |   -The integral of the phase fct / 4 pi over all   |
 |    directions (solid angle) = 1.                   |
 |   -The volume coefficient (k) is equal to C * N    |
 |      = cross section * Number density              |
 |      typical units: [um^2]*[particles/cm^3] =      |
 |      [10^-3 km-1]                                  |
 |      N = M/(d*4/3*pi*r^3) where d is the density   |
 |      of particle, M is the mass per unit volume    |
 |      and 4/3*pi*r^3 is the average volume  of a    |
 |      particle.                                     |
 |      typical units:  M -> [ug/m^3], d -> [g/cm^3]  |
 |                      r -> [um]                     |
 |      Lidar ratio= 4 pi Qe / phase_fct(180)*Qs      |
 |----------------------------------------------------|
