 |--------|------------|
 | ANGLE  |  PHASE FCT |
 |--------|------------|
     0.00   23.832    
     1.00   23.717    
     2.00   23.377    
     3.00   22.828    
     4.00   22.094    
     5.00   21.207    
     6.00   20.199    
     7.00   19.105    
     8.00   17.958    
     9.00   16.787    
    10.00   15.617    
    11.00   14.470    
    12.00   13.361    
    13.00   12.304    
    14.00   11.305    
    15.00   10.371    
    16.00   9.5045    
    17.00   8.7048    
    18.00   7.9711    
    19.00   7.3009    
    20.00   6.6911    
    21.00   6.1377    
    22.00   5.6366    
    23.00   5.1837    
    24.00   4.7748    
    25.00   4.4058    
    26.00   4.0728    
    27.00   3.7723    
    28.00   3.5009    
    29.00   3.2556    
    30.00   3.0335    
    31.00   2.8321    
    32.00   2.6492    
    33.00   2.4827    
    34.00   2.3307    
    35.00   2.1918    
    36.00   2.0645    
    37.00   1.9475    
    38.00   1.8398    
    39.00   1.7404    
    40.00   1.6483    
    41.00   1.5630    
    42.00   1.4837    
    43.00   1.4098    
    44.00   1.3408    
    45.00   1.2764    
    46.00   1.2160    
    47.00   1.1594    
    48.00   1.1062    
    49.00   1.0561    
    50.00   1.0090    
    51.00  0.96455    
    52.00  0.92259    
    53.00  0.88295    
    54.00  0.84547    
    55.00  0.80998    
    56.00  0.77638    
    57.00  0.74454    
    58.00  0.71434    
    59.00  0.68569    
    60.00  0.65849    
    61.00  0.63266    
    62.00  0.60812    
    63.00  0.58480    
    64.00  0.56263    
    65.00  0.54154    
    66.00  0.52149    
    67.00  0.50241    
    68.00  0.48425    
    69.00  0.46697    
    70.00  0.45051    
    71.00  0.43485    
    72.00  0.41994    
    73.00  0.40573    
    74.00  0.39221    
    75.00  0.37933    
    76.00  0.36706    
    77.00  0.35537    
    78.00  0.34425    
    79.00  0.33365    
    80.00  0.32356    
    81.00  0.31395    
    82.00  0.30481    
    83.00  0.29610    
    84.00  0.28782    
    85.00  0.27994    
    86.00  0.27245    
    87.00  0.26532    
    88.00  0.25855    
    89.00  0.25212    
    90.00  0.24602    
    91.00  0.24022    
    92.00  0.23473    
    93.00  0.22953    
    94.00  0.22460    
    95.00  0.21994    
    96.00  0.21554    
    97.00  0.21139    
    98.00  0.20748    
    99.00  0.20380    
   100.00  0.20035    
   101.00  0.19712    
   102.00  0.19410    
   103.00  0.19128    
   104.00  0.18867    
   105.00  0.18625    
   106.00  0.18403    
   107.00  0.18200    
   108.00  0.18015    
   109.00  0.17848    
   110.00  0.17700    
   111.00  0.17569    
   112.00  0.17456    
   113.00  0.17362    
   114.00  0.17285    
   115.00  0.17226    
   116.00  0.17185    
   117.00  0.17163    
   118.00  0.17159    
   119.00  0.17174    
   120.00  0.17210    
   121.00  0.17265    
   122.00  0.17341    
   123.00  0.17439    
   124.00  0.17560    
   125.00  0.17705    
   126.00  0.17874    
   127.00  0.18069    
   128.00  0.18293    
   129.00  0.18545    
   130.00  0.18828    
   131.00  0.19143    
   132.00  0.19492    
   133.00  0.19878    
   134.00  0.20302    
   135.00  0.20765    
   136.00  0.21270    
   137.00  0.21819    
   138.00  0.22411    
   139.00  0.23049    
   140.00  0.23733    
   141.00  0.24462    
   142.00  0.25235    
   143.00  0.26050    
   144.00  0.26902    
   145.00  0.27787    
   146.00  0.28696    
   147.00  0.29622    
   148.00  0.30553    
   149.00  0.31474    
   150.00  0.32372    
   151.00  0.33228    
   152.00  0.34024    
   153.00  0.34741    
   154.00  0.35362    
   155.00  0.35869    
   156.00  0.36251    
   157.00  0.36501    
   158.00  0.36620    
   159.00  0.36621    
   160.00  0.36526    
   161.00  0.36374    
   162.00  0.36216    
   163.00  0.36114    
   164.00  0.36145    
   165.00  0.36389    
   166.00  0.36929    
   167.00  0.37842    
   168.00  0.39189    
   169.00  0.41011    
   170.00  0.43318    
   171.00  0.46082    
   172.00  0.49235    
   173.00  0.52666    
   174.00  0.56225    
   175.00  0.59732    
   176.00  0.62985    
   177.00  0.65781    
   178.00  0.67934    
   179.00  0.69291    
   180.00  0.69755    
 |--------|------------|
0.750000     micron = Wavelength
0.113448     = Extinction efficiency (Q)
0.100933     = Scattering efficiency (Qs)
0.125145E-01 = Absorption efficiency (Qa)
 20.2485     = Lidar ratio
0.302566E-02 micron^2 = <b> = Average surface area per particle
0.343254E-03 microns^2 = Extinction cross section (C)
0.305390E-03 microns^2 = Scattering cross section (Cs)
0.378645E-04 microns^2 = Absorption cross section (Ca)
 |----------------------------------------------------|
 | COMMENTAIRES:                                      |
 |----------------------------------------------------|
 |   -Cross section / <b> should = efficiency         |
 |    is independant of the normalisation of dN/dx    |
 |   -The integral of the phase fct / 4 pi over all   |
 |    directions (solid angle) = 1.                   |
 |   -The volume coefficient (k) is equal to C * N    |
 |      = cross section * Number density              |
 |      typical units: [um^2]*[particles/cm^3] =      |
 |      [10^-3 km-1]                                  |
 |      N = M/(d*4/3*pi*r^3) where d is the density   |
 |      of particle, M is the mass per unit volume    |
 |      and 4/3*pi*r^3 is the average volume  of a    |
 |      particle.                                     |
 |      typical units:  M -> [ug/m^3], d -> [g/cm^3]  |
 |                      r -> [um]                     |
 |      Lidar ratio= 4 pi Qe / phase_fct(180)*Qs      |
 |----------------------------------------------------|
