 |--------|------------|
 | ANGLE  |  PHASE FCT |
 |--------|------------|
     0.00   69.936    
     1.00   67.871    
     2.00   62.188    
     3.00   54.172    
     4.00   45.302    
     5.00   36.754    
     6.00   29.217    
     7.00   22.954    
     8.00   17.966    
     9.00   14.113    
    10.00   11.200    
    11.00   9.0286    
    12.00   7.4242    
    13.00   6.2426    
    14.00   5.3712    
    15.00   4.7247    
    16.00   4.2398    
    17.00   3.8706    
    18.00   3.5840    
    19.00   3.3562    
    20.00   3.1704    
    21.00   3.0148    
    22.00   2.8809    
    23.00   2.7629    
    24.00   2.6568    
    25.00   2.5597    
    26.00   2.4696    
    27.00   2.3851    
    28.00   2.3052    
    29.00   2.2292    
    30.00   2.1567    
    31.00   2.0872    
    32.00   2.0204    
    33.00   1.9561    
    34.00   1.8942    
    35.00   1.8344    
    36.00   1.7767    
    37.00   1.7209    
    38.00   1.6670    
    39.00   1.6149    
    40.00   1.5645    
    41.00   1.5158    
    42.00   1.4686    
    43.00   1.4230    
    44.00   1.3789    
    45.00   1.3362    
    46.00   1.2949    
    47.00   1.2549    
    48.00   1.2163    
    49.00   1.1789    
    50.00   1.1427    
    51.00   1.1078    
    52.00   1.0740    
    53.00   1.0413    
    54.00   1.0097    
    55.00  0.97924    
    56.00  0.94976    
    57.00  0.92130    
    58.00  0.89381    
    59.00  0.86727    
    60.00  0.84166    
    61.00  0.81695    
    62.00  0.79311    
    63.00  0.77012    
    64.00  0.74796    
    65.00  0.72661    
    66.00  0.70605    
    67.00  0.68625    
    68.00  0.66719    
    69.00  0.64886    
    70.00  0.63123    
    71.00  0.61429    
    72.00  0.59802    
    73.00  0.58239    
    74.00  0.56741    
    75.00  0.55303    
    76.00  0.53925    
    77.00  0.52606    
    78.00  0.51343    
    79.00  0.50135    
    80.00  0.48980    
    81.00  0.47878    
    82.00  0.46825    
    83.00  0.45822    
    84.00  0.44866    
    85.00  0.43957    
    86.00  0.43091    
    87.00  0.42270    
    88.00  0.41490    
    89.00  0.40751    
    90.00  0.40052    
    91.00  0.39391    
    92.00  0.38768    
    93.00  0.38180    
    94.00  0.37628    
    95.00  0.37109    
    96.00  0.36623    
    97.00  0.36170    
    98.00  0.35747    
    99.00  0.35354    
   100.00  0.34990    
   101.00  0.34655    
   102.00  0.34347    
   103.00  0.34066    
   104.00  0.33811    
   105.00  0.33581    
   106.00  0.33376    
   107.00  0.33194    
   108.00  0.33036    
   109.00  0.32901    
   110.00  0.32787    
   111.00  0.32695    
   112.00  0.32625    
   113.00  0.32575    
   114.00  0.32545    
   115.00  0.32535    
   116.00  0.32545    
   117.00  0.32574    
   118.00  0.32622    
   119.00  0.32690    
   120.00  0.32776    
   121.00  0.32882    
   122.00  0.33006    
   123.00  0.33150    
   124.00  0.33313    
   125.00  0.33496    
   126.00  0.33700    
   127.00  0.33925    
   128.00  0.34172    
   129.00  0.34441    
   130.00  0.34735    
   131.00  0.35053    
   132.00  0.35397    
   133.00  0.35769    
   134.00  0.36171    
   135.00  0.36603    
   136.00  0.37069    
   137.00  0.37569    
   138.00  0.38105    
   139.00  0.38680    
   140.00  0.39296    
   141.00  0.39952    
   142.00  0.40651    
   143.00  0.41393    
   144.00  0.42179    
   145.00  0.43008    
   146.00  0.43878    
   147.00  0.44789    
   148.00  0.45737    
   149.00  0.46721    
   150.00  0.47737    
   151.00  0.48782    
   152.00  0.49854    
   153.00  0.50954    
   154.00  0.52082    
   155.00  0.53242    
   156.00  0.54442    
   157.00  0.55691    
   158.00  0.56998    
   159.00  0.58367    
   160.00  0.59797    
   161.00  0.61270    
   162.00  0.62742    
   163.00  0.64147    
   164.00  0.65380    
   165.00  0.66305    
   166.00  0.66774    
   167.00  0.66650    
   168.00  0.65844    
   169.00  0.64349    
   170.00  0.62266    
   171.00  0.59802    
   172.00  0.57258    
   173.00  0.55020    
   174.00  0.53523    
   175.00  0.53181    
   176.00  0.54252    
   177.00  0.56641    
   178.00  0.59719    
   179.00  0.62357    
   180.00  0.63402    
 |--------|------------|
0.500000     micron = Wavelength
0.164240     = Extinction efficiency (Q)
0.152603     = Scattering efficiency (Qs)
0.116369E-01 = Absorption efficiency (Qa)
 21.3316     = Lidar ratio
0.747900E-02 micron^2 = <b> = Average surface area per particle
0.122835E-02 microns^2 = Extinction cross section (C)
0.114132E-02 microns^2 = Scattering cross section (Cs)
0.870320E-04 microns^2 = Absorption cross section (Ca)
 |----------------------------------------------------|
 | COMMENTAIRES:                                      |
 |----------------------------------------------------|
 |   -Cross section / <b> should = efficiency         |
 |    is independant of the normalisation of dN/dx    |
 |   -The integral of the phase fct / 4 pi over all   |
 |    directions (solid angle) = 1.                   |
 |   -The volume coefficient (k) is equal to C * N    |
 |      = cross section * Number density              |
 |      typical units: [um^2]*[particles/cm^3] =      |
 |      [10^-3 km-1]                                  |
 |      N = M/(d*4/3*pi*r^3) where d is the density   |
 |      of particle, M is the mass per unit volume    |
 |      and 4/3*pi*r^3 is the average volume  of a    |
 |      particle.                                     |
 |      typical units:  M -> [ug/m^3], d -> [g/cm^3]  |
 |                      r -> [um]                     |
 |      Lidar ratio= 4 pi Qe / phase_fct(180)*Qs      |
 |----------------------------------------------------|
