 |--------|------------|
 | ANGLE  |  PHASE FCT |
 |--------|------------|
     0.00   142.94    
     1.00   136.88    
     2.00   120.68    
     3.00   99.086    
     4.00   77.034    
     5.00   57.750    
     6.00   42.417    
     7.00   30.915    
     8.00   22.611    
     9.00   16.775    
    10.00   12.739    
    11.00   9.9609    
    12.00   8.0446    
    13.00   6.7108    
    14.00   5.7664    
    15.00   5.0821    
    16.00   4.5726    
    17.00   4.1807    
    18.00   3.8682    
    19.00   3.6109    
    20.00   3.3930    
    21.00   3.2037    
    22.00   3.0353    
    23.00   2.8829    
    24.00   2.7435    
    25.00   2.6151    
    26.00   2.4958    
    27.00   2.3841    
    28.00   2.2792    
    29.00   2.1806    
    30.00   2.0876    
    31.00   1.9996    
    32.00   1.9161    
    33.00   1.8369    
    34.00   1.7617    
    35.00   1.6902    
    36.00   1.6219    
    37.00   1.5569    
    38.00   1.4950    
    39.00   1.4358    
    40.00   1.3793    
    41.00   1.3253    
    42.00   1.2737    
    43.00   1.2243    
    44.00   1.1771    
    45.00   1.1319    
    46.00   1.0887    
    47.00   1.0474    
    48.00   1.0077    
    49.00  0.96979    
    50.00  0.93352    
    51.00  0.89877    
    52.00  0.86546    
    53.00  0.83359    
    54.00  0.80309    
    55.00  0.77387    
    56.00  0.74588    
    57.00  0.71909    
    58.00  0.69346    
    59.00  0.66892    
    60.00  0.64541    
    61.00  0.62292    
    62.00  0.60142    
    63.00  0.58084    
    64.00  0.56114    
    65.00  0.54231    
    66.00  0.52432    
    67.00  0.50711    
    68.00  0.49066    
    69.00  0.47496    
    70.00  0.45997    
    71.00  0.44566    
    72.00  0.43199    
    73.00  0.41897    
    74.00  0.40656    
    75.00  0.39473    
    76.00  0.38346    
    77.00  0.37274    
    78.00  0.36255    
    79.00  0.35285    
    80.00  0.34364    
    81.00  0.33490    
    82.00  0.32660    
    83.00  0.31873    
    84.00  0.31128    
    85.00  0.30421    
    86.00  0.29753    
    87.00  0.29121    
    88.00  0.28523    
    89.00  0.27959    
    90.00  0.27426    
    91.00  0.26924    
    92.00  0.26451    
    93.00  0.26005    
    94.00  0.25585    
    95.00  0.25191    
    96.00  0.24821    
    97.00  0.24475    
    98.00  0.24150    
    99.00  0.23847    
   100.00  0.23564    
   101.00  0.23301    
   102.00  0.23057    
   103.00  0.22832    
   104.00  0.22624    
   105.00  0.22434    
   106.00  0.22260    
   107.00  0.22104    
   108.00  0.21963    
   109.00  0.21838    
   110.00  0.21730    
   111.00  0.21636    
   112.00  0.21558    
   113.00  0.21496    
   114.00  0.21449    
   115.00  0.21417    
   116.00  0.21401    
   117.00  0.21401    
   118.00  0.21418    
   119.00  0.21451    
   120.00  0.21501    
   121.00  0.21569    
   122.00  0.21656    
   123.00  0.21762    
   124.00  0.21889    
   125.00  0.22037    
   126.00  0.22210    
   127.00  0.22407    
   128.00  0.22631    
   129.00  0.22884    
   130.00  0.23169    
   131.00  0.23488    
   132.00  0.23844    
   133.00  0.24240    
   134.00  0.24680    
   135.00  0.25166    
   136.00  0.25704    
   137.00  0.26295    
   138.00  0.26944    
   139.00  0.27655    
   140.00  0.28428    
   141.00  0.29267    
   142.00  0.30172    
   143.00  0.31142    
   144.00  0.32175    
   145.00  0.33265    
   146.00  0.34407    
   147.00  0.35591    
   148.00  0.36803    
   149.00  0.38029    
   150.00  0.39252    
   151.00  0.40453    
   152.00  0.41612    
   153.00  0.42715    
   154.00  0.43748    
   155.00  0.44706    
   156.00  0.45597    
   157.00  0.46440    
   158.00  0.47269    
   159.00  0.48134    
   160.00  0.49095    
   161.00  0.50210    
   162.00  0.51527    
   163.00  0.53072    
   164.00  0.54818    
   165.00  0.56660    
   166.00  0.58419    
   167.00  0.59856    
   168.00  0.60706    
   169.00  0.60765    
   170.00  0.59963    
   171.00  0.58364    
   172.00  0.56137    
   173.00  0.53597    
   174.00  0.51262    
   175.00  0.49853    
   176.00  0.50227    
   177.00  0.53023    
   178.00  0.57829    
   179.00  0.62611    
   180.00  0.64637    
 |--------|------------|
0.680000     micron = Wavelength
0.200573     = Extinction efficiency (Q)
0.184515     = Scattering efficiency (Qs)
0.160577E-01 = Absorption efficiency (Qa)
 21.1334     = Lidar ratio
0.116611E-01 micron^2 = <b> = Average surface area per particle
0.233890E-02 microns^2 = Extinction cross section (C)
0.215165E-02 microns^2 = Scattering cross section (Cs)
0.187251E-03 microns^2 = Absorption cross section (Ca)
 |----------------------------------------------------|
 | COMMENTAIRES:                                      |
 |----------------------------------------------------|
 |   -Cross section / <b> should = efficiency         |
 |    is independant of the normalisation of dN/dx    |
 |   -The integral of the phase fct / 4 pi over all   |
 |    directions (solid angle) = 1.                   |
 |   -The volume coefficient (k) is equal to C * N    |
 |      = cross section * Number density              |
 |      typical units: [um^2]*[particles/cm^3] =      |
 |      [10^-3 km-1]                                  |
 |      N = M/(d*4/3*pi*r^3) where d is the density   |
 |      of particle, M is the mass per unit volume    |
 |      and 4/3*pi*r^3 is the average volume  of a    |
 |      particle.                                     |
 |      typical units:  M -> [ug/m^3], d -> [g/cm^3]  |
 |                      r -> [um]                     |
 |      Lidar ratio= 4 pi Qe / phase_fct(180)*Qs      |
 |----------------------------------------------------|
