 |--------|------------|
 | ANGLE  |  PHASE FCT |
 |--------|------------|
     0.00   41.852    
     1.00   41.381    
     2.00   40.020    
     3.00   37.905    
     4.00   35.229    
     5.00   32.203    
     6.00   29.024    
     7.00   25.856    
     8.00   22.823    
     9.00   20.008    
    10.00   17.457    
    11.00   15.191    
    12.00   13.208    
    13.00   11.494    
    14.00   10.027    
    15.00   8.7796    
    16.00   7.7253    
    17.00   6.8369    
    18.00   6.0897    
    19.00   5.4612    
    20.00   4.9319    
    21.00   4.4847    
    22.00   4.1053    
    23.00   3.7815    
    24.00   3.5032    
    25.00   3.2620    
    26.00   3.0513    
    27.00   2.8655    
    28.00   2.7001    
    29.00   2.5515    
    30.00   2.4169    
    31.00   2.2940    
    32.00   2.1810    
    33.00   2.0763    
    34.00   1.9789    
    35.00   1.8878    
    36.00   1.8023    
    37.00   1.7217    
    38.00   1.6456    
    39.00   1.5736    
    40.00   1.5054    
    41.00   1.4406    
    42.00   1.3791    
    43.00   1.3206    
    44.00   1.2649    
    45.00   1.2119    
    46.00   1.1615    
    47.00   1.1134    
    48.00   1.0677    
    49.00   1.0242    
    50.00  0.98267    
    51.00  0.94316    
    52.00  0.90553    
    53.00  0.86969    
    54.00  0.83556    
    55.00  0.80305    
    56.00  0.77210    
    57.00  0.74262    
    58.00  0.71454    
    59.00  0.68781    
    60.00  0.66235    
    61.00  0.63811    
    62.00  0.61502    
    63.00  0.59303    
    64.00  0.57209    
    65.00  0.55215    
    66.00  0.53316    
    67.00  0.51509    
    68.00  0.49786    
    69.00  0.48147    
    70.00  0.46586    
    71.00  0.45099    
    72.00  0.43684    
    73.00  0.42337    
    74.00  0.41055    
    75.00  0.39835    
    76.00  0.38674    
    77.00  0.37569    
    78.00  0.36519    
    79.00  0.35519    
    80.00  0.34570    
    81.00  0.33668    
    82.00  0.32811    
    83.00  0.31997    
    84.00  0.31225    
    85.00  0.30493    
    86.00  0.29798    
    87.00  0.29141    
    88.00  0.28520    
    89.00  0.27932    
    90.00  0.27377    
    91.00  0.26853    
    92.00  0.26360    
    93.00  0.25896    
    94.00  0.25460    
    95.00  0.25052    
    96.00  0.24670    
    97.00  0.24313    
    98.00  0.23982    
    99.00  0.23674    
   100.00  0.23390    
   101.00  0.23128    
   102.00  0.22888    
   103.00  0.22670    
   104.00  0.22473    
   105.00  0.22295    
   106.00  0.22138    
   107.00  0.22001    
   108.00  0.21882    
   109.00  0.21782    
   110.00  0.21701    
   111.00  0.21638    
   112.00  0.21592    
   113.00  0.21565    
   114.00  0.21555    
   115.00  0.21563    
   116.00  0.21589    
   117.00  0.21632    
   118.00  0.21693    
   119.00  0.21772    
   120.00  0.21869    
   121.00  0.21984    
   122.00  0.22118    
   123.00  0.22271    
   124.00  0.22444    
   125.00  0.22637    
   126.00  0.22852    
   127.00  0.23088    
   128.00  0.23348    
   129.00  0.23632    
   130.00  0.23941    
   131.00  0.24277    
   132.00  0.24642    
   133.00  0.25037    
   134.00  0.25465    
   135.00  0.25929    
   136.00  0.26430    
   137.00  0.26972    
   138.00  0.27559    
   139.00  0.28193    
   140.00  0.28881    
   141.00  0.29625    
   142.00  0.30431    
   143.00  0.31306    
   144.00  0.32254    
   145.00  0.33283    
   146.00  0.34398    
   147.00  0.35607    
   148.00  0.36914    
   149.00  0.38327    
   150.00  0.39846    
   151.00  0.41472    
   152.00  0.43201    
   153.00  0.45024    
   154.00  0.46921    
   155.00  0.48867    
   156.00  0.50822    
   157.00  0.52734    
   158.00  0.54537    
   159.00  0.56153    
   160.00  0.57491    
   161.00  0.58458    
   162.00  0.58961    
   163.00  0.58922    
   164.00  0.58293    
   165.00  0.57065    
   166.00  0.55287    
   167.00  0.53074    
   168.00  0.50604    
   169.00  0.48113    
   170.00  0.45875    
   171.00  0.44165    
   172.00  0.43232    
   173.00  0.43245    
   174.00  0.44255    
   175.00  0.46163    
   176.00  0.48707    
   177.00  0.51477    
   178.00  0.53976    
   179.00  0.55716    
   180.00  0.56341    
 |--------|------------|
0.530000     micron = Wavelength
0.113779     = Extinction efficiency (Q)
0.104438     = Scattering efficiency (Qs)
0.934075E-02 = Absorption efficiency (Qa)
 24.2990     = Lidar ratio
0.336362E-02 micron^2 = <b> = Average surface area per particle
0.382710E-03 microns^2 = Extinction cross section (C)
0.351291E-03 microns^2 = Scattering cross section (Cs)
0.314187E-04 microns^2 = Absorption cross section (Ca)
 |----------------------------------------------------|
 | COMMENTAIRES:                                      |
 |----------------------------------------------------|
 |   -Cross section / <b> should = efficiency         |
 |    is independant of the normalisation of dN/dx    |
 |   -The integral of the phase fct / 4 pi over all   |
 |    directions (solid angle) = 1.                   |
 |   -The volume coefficient (k) is equal to C * N    |
 |      = cross section * Number density              |
 |      typical units: [um^2]*[particles/cm^3] =      |
 |      [10^-3 km-1]                                  |
 |      N = M/(d*4/3*pi*r^3) where d is the density   |
 |      of particle, M is the mass per unit volume    |
 |      and 4/3*pi*r^3 is the average volume  of a    |
 |      particle.                                     |
 |      typical units:  M -> [ug/m^3], d -> [g/cm^3]  |
 |                      r -> [um]                     |
 |      Lidar ratio= 4 pi Qe / phase_fct(180)*Qs      |
 |----------------------------------------------------|
