 |--------|------------|
 | ANGLE  |  PHASE FCT |
 |--------|------------|
     0.00   47.880    
     1.00   46.991    
     2.00   44.469    
     3.00   40.704    
     4.00   36.196    
     5.00   31.428    
     6.00   26.776    
     7.00   22.491    
     8.00   18.710    
     9.00   15.478    
    10.00   12.783    
    11.00   10.580    
    12.00   8.8046    
    13.00   7.3891    
    14.00   6.2691    
    15.00   5.3872    
    16.00   4.6940    
    17.00   4.1488    
    18.00   3.7186    
    19.00   3.3773    
    20.00   3.1043    
    21.00   2.8838    
    22.00   2.7035    
    23.00   2.5540    
    24.00   2.4282    
    25.00   2.3206    
    26.00   2.2270    
    27.00   2.1442    
    28.00   2.0698    
    29.00   2.0020    
    30.00   1.9395    
    31.00   1.8812    
    32.00   1.8262    
    33.00   1.7741    
    34.00   1.7244    
    35.00   1.6767    
    36.00   1.6308    
    37.00   1.5865    
    38.00   1.5436    
    39.00   1.5020    
    40.00   1.4617    
    41.00   1.4226    
    42.00   1.3846    
    43.00   1.3476    
    44.00   1.3117    
    45.00   1.2767    
    46.00   1.2427    
    47.00   1.2096    
    48.00   1.1774    
    49.00   1.1461    
    50.00   1.1156    
    51.00   1.0860    
    52.00   1.0572    
    53.00   1.0291    
    54.00   1.0019    
    55.00  0.97540    
    56.00  0.94966    
    57.00  0.92464    
    58.00  0.90036    
    59.00  0.87678    
    60.00  0.85389    
    61.00  0.83168    
    62.00  0.81014    
    63.00  0.78925    
    64.00  0.76900    
    65.00  0.74939    
    66.00  0.73039    
    67.00  0.71201    
    68.00  0.69422    
    69.00  0.67701    
    70.00  0.66038    
    71.00  0.64433    
    72.00  0.62882    
    73.00  0.61385    
    74.00  0.59942    
    75.00  0.58552    
    76.00  0.57213    
    77.00  0.55924    
    78.00  0.54686    
    79.00  0.53495    
    80.00  0.52353    
    81.00  0.51258    
    82.00  0.50209    
    83.00  0.49205    
    84.00  0.48245    
    85.00  0.47329    
    86.00  0.46455    
    87.00  0.45623    
    88.00  0.44832    
    89.00  0.44081    
    90.00  0.43369    
    91.00  0.42696    
    92.00  0.42060    
    93.00  0.41461    
    94.00  0.40898    
    95.00  0.40370    
    96.00  0.39876    
    97.00  0.39416    
    98.00  0.38988    
    99.00  0.38592    
   100.00  0.38227    
   101.00  0.37893    
   102.00  0.37588    
   103.00  0.37312    
   104.00  0.37063    
   105.00  0.36842    
   106.00  0.36648    
   107.00  0.36478    
   108.00  0.36335    
   109.00  0.36215    
   110.00  0.36119    
   111.00  0.36046    
   112.00  0.35995    
   113.00  0.35967    
   114.00  0.35959    
   115.00  0.35971    
   116.00  0.36003    
   117.00  0.36055    
   118.00  0.36126    
   119.00  0.36215    
   120.00  0.36322    
   121.00  0.36447    
   122.00  0.36589    
   123.00  0.36748    
   124.00  0.36924    
   125.00  0.37117    
   126.00  0.37325    
   127.00  0.37551    
   128.00  0.37793    
   129.00  0.38052    
   130.00  0.38328    
   131.00  0.38622    
   132.00  0.38934    
   133.00  0.39266    
   134.00  0.39618    
   135.00  0.39992    
   136.00  0.40390    
   137.00  0.40815    
   138.00  0.41269    
   139.00  0.41757    
   140.00  0.42282    
   141.00  0.42851    
   142.00  0.43470    
   143.00  0.44146    
   144.00  0.44887    
   145.00  0.45705    
   146.00  0.46609    
   147.00  0.47611    
   148.00  0.48722    
   149.00  0.49953    
   150.00  0.51313    
   151.00  0.52809    
   152.00  0.54443    
   153.00  0.56212    
   154.00  0.58101    
   155.00  0.60087    
   156.00  0.62135    
   157.00  0.64195    
   158.00  0.66207    
   159.00  0.68104    
   160.00  0.69820    
   161.00  0.71298    
   162.00  0.72505    
   163.00  0.73440    
   164.00  0.74137    
   165.00  0.74668    
   166.00  0.75132    
   167.00  0.75643    
   168.00  0.76321    
   169.00  0.77292    
   170.00  0.78680    
   171.00  0.80616    
   172.00  0.83230    
   173.00  0.86632    
   174.00  0.90860    
   175.00  0.95831    
   176.00   1.0127    
   177.00   1.0669    
   178.00   1.1138    
   179.00   1.1461    
   180.00   1.1576    
 |--------|------------|
0.390000     micron = Wavelength
0.147264     = Extinction efficiency (Q)
0.129902     = Scattering efficiency (Qs)
0.173621E-01 = Absorption efficiency (Qa)
 12.3068     = Lidar ratio
0.302565E-02 micron^2 = <b> = Average surface area per particle
0.445568E-03 microns^2 = Extinction cross section (C)
0.393036E-03 microns^2 = Scattering cross section (Cs)
0.525315E-04 microns^2 = Absorption cross section (Ca)
 |----------------------------------------------------|
 | COMMENTAIRES:                                      |
 |----------------------------------------------------|
 |   -Cross section / <b> should = efficiency         |
 |    is independant of the normalisation of dN/dx    |
 |   -The integral of the phase fct / 4 pi over all   |
 |    directions (solid angle) = 1.                   |
 |   -The volume coefficient (k) is equal to C * N    |
 |      = cross section * Number density              |
 |      typical units: [um^2]*[particles/cm^3] =      |
 |      [10^-3 km-1]                                  |
 |      N = M/(d*4/3*pi*r^3) where d is the density   |
 |      of particle, M is the mass per unit volume    |
 |      and 4/3*pi*r^3 is the average volume  of a    |
 |      particle.                                     |
 |      typical units:  M -> [ug/m^3], d -> [g/cm^3]  |
 |                      r -> [um]                     |
 |      Lidar ratio= 4 pi Qe / phase_fct(180)*Qs      |
 |----------------------------------------------------|
