 |--------|------------|
 | ANGLE  |  PHASE FCT |
 |--------|------------|
     0.00   35.707    
     1.00   35.422    
     2.00   34.591    
     3.00   33.275    
     4.00   31.566    
     5.00   29.572    
     6.00   27.398    
     7.00   25.145    
     8.00   22.894    
     9.00   20.710    
    10.00   18.641    
    11.00   16.716    
    12.00   14.952    
    13.00   13.356    
    14.00   11.925    
    15.00   10.654    
    16.00   9.5300    
    17.00   8.5415    
    18.00   7.6749    
    19.00   6.9167    
    20.00   6.2540    
    21.00   5.6746    
    22.00   5.1677    
    23.00   4.7233    
    24.00   4.3327    
    25.00   3.9884    
    26.00   3.6837    
    27.00   3.4129    
    28.00   3.1712    
    29.00   2.9545    
    30.00   2.7593    
    31.00   2.5827    
    32.00   2.4222    
    33.00   2.2757    
    34.00   2.1414    
    35.00   2.0179    
    36.00   1.9040    
    37.00   1.7985    
    38.00   1.7006    
    39.00   1.6094    
    40.00   1.5245    
    41.00   1.4451    
    42.00   1.3708    
    43.00   1.3011    
    44.00   1.2358    
    45.00   1.1744    
    46.00   1.1166    
    47.00   1.0623    
    48.00   1.0111    
    49.00  0.96291    
    50.00  0.91745    
    51.00  0.87457    
    52.00  0.83409    
    53.00  0.79588    
    54.00  0.75980    
    55.00  0.72571    
    56.00  0.69350    
    57.00  0.66305    
    58.00  0.63427    
    59.00  0.60705    
    60.00  0.58131    
    61.00  0.55695    
    62.00  0.53391    
    63.00  0.51209    
    64.00  0.49145    
    65.00  0.47190    
    66.00  0.45339    
    67.00  0.43586    
    68.00  0.41926    
    69.00  0.40352    
    70.00  0.38862    
    71.00  0.37449    
    72.00  0.36111    
    73.00  0.34842    
    74.00  0.33640    
    75.00  0.32500    
    76.00  0.31419    
    77.00  0.30395    
    78.00  0.29424    
    79.00  0.28504    
    80.00  0.27631    
    81.00  0.26805    
    82.00  0.26022    
    83.00  0.25280    
    84.00  0.24577    
    85.00  0.23912    
    86.00  0.23282    
    87.00  0.22687    
    88.00  0.22124    
    89.00  0.21591    
    90.00  0.21089    
    91.00  0.20615    
    92.00  0.20168    
    93.00  0.19747    
    94.00  0.19351    
    95.00  0.18979    
    96.00  0.18630    
    97.00  0.18303    
    98.00  0.17998    
    99.00  0.17714    
   100.00  0.17449    
   101.00  0.17205    
   102.00  0.16978    
   103.00  0.16770    
   104.00  0.16580    
   105.00  0.16408    
   106.00  0.16252    
   107.00  0.16113    
   108.00  0.15990    
   109.00  0.15883    
   110.00  0.15792    
   111.00  0.15716    
   112.00  0.15656    
   113.00  0.15611    
   114.00  0.15582    
   115.00  0.15568    
   116.00  0.15569    
   117.00  0.15586    
   118.00  0.15619    
   119.00  0.15667    
   120.00  0.15732    
   121.00  0.15813    
   122.00  0.15912    
   123.00  0.16027    
   124.00  0.16161    
   125.00  0.16313    
   126.00  0.16485    
   127.00  0.16678    
   128.00  0.16891    
   129.00  0.17128    
   130.00  0.17387    
   131.00  0.17672    
   132.00  0.17984    
   133.00  0.18324    
   134.00  0.18694    
   135.00  0.19097    
   136.00  0.19534    
   137.00  0.20008    
   138.00  0.20523    
   139.00  0.21080    
   140.00  0.21683    
   141.00  0.22335    
   142.00  0.23040    
   143.00  0.23800    
   144.00  0.24620    
   145.00  0.25503    
   146.00  0.26451    
   147.00  0.27466    
   148.00  0.28548    
   149.00  0.29697    
   150.00  0.30910    
   151.00  0.32180    
   152.00  0.33496    
   153.00  0.34844    
   154.00  0.36202    
   155.00  0.37542    
   156.00  0.38829    
   157.00  0.40019    
   158.00  0.41064    
   159.00  0.41907    
   160.00  0.42491    
   161.00  0.42760    
   162.00  0.42666    
   163.00  0.42175    
   164.00  0.41280    
   165.00  0.40004    
   166.00  0.38407    
   167.00  0.36592    
   168.00  0.34700    
   169.00  0.32903    
   170.00  0.31385    
   171.00  0.30323    
   172.00  0.29855    
   173.00  0.30059    
   174.00  0.30928    
   175.00  0.32355    
   176.00  0.34137    
   177.00  0.35998    
   178.00  0.37629    
   179.00  0.38743    
   180.00  0.39139    
 |--------|------------|
0.740000     micron = Wavelength
0.119592     = Extinction efficiency (Q)
0.110907     = Scattering efficiency (Qs)
0.868493E-02 = Absorption efficiency (Qa)
 34.6209     = Lidar ratio
0.446407E-02 micron^2 = <b> = Average surface area per particle
0.533867E-03 microns^2 = Extinction cross section (C)
0.495097E-03 microns^2 = Scattering cross section (Cs)
0.387701E-04 microns^2 = Absorption cross section (Ca)
 |----------------------------------------------------|
 | COMMENTAIRES:                                      |
 |----------------------------------------------------|
 |   -Cross section / <b> should = efficiency         |
 |    is independant of the normalisation of dN/dx    |
 |   -The integral of the phase fct / 4 pi over all   |
 |    directions (solid angle) = 1.                   |
 |   -The volume coefficient (k) is equal to C * N    |
 |      = cross section * Number density              |
 |      typical units: [um^2]*[particles/cm^3] =      |
 |      [10^-3 km-1]                                  |
 |      N = M/(d*4/3*pi*r^3) where d is the density   |
 |      of particle, M is the mass per unit volume    |
 |      and 4/3*pi*r^3 is the average volume  of a    |
 |      particle.                                     |
 |      typical units:  M -> [ug/m^3], d -> [g/cm^3]  |
 |                      r -> [um]                     |
 |      Lidar ratio= 4 pi Qe / phase_fct(180)*Qs      |
 |----------------------------------------------------|
