 |--------|------------|
 | ANGLE  |  PHASE FCT |
 |--------|------------|
     0.00   47.831    
     1.00   47.205    
     2.00   45.403    
     3.00   42.631    
     4.00   39.175    
     5.00   35.334    
     6.00   31.377    
     7.00   27.518    
     8.00   23.903    
     9.00   20.622    
    10.00   17.716    
    11.00   15.191    
    12.00   13.032    
    13.00   11.206    
    14.00   9.6768    
    15.00   8.4037    
    16.00   7.3488    
    17.00   6.4766    
    18.00   5.7559    
    19.00   5.1595    
    20.00   4.6643    
    21.00   4.2510    
    22.00   3.9036    
    23.00   3.6092    
    24.00   3.3573    
    25.00   3.1393    
    26.00   2.9486    
    27.00   2.7799    
    28.00   2.6289    
    29.00   2.4923    
    30.00   2.3677    
    31.00   2.2530    
    32.00   2.1467    
    33.00   2.0475    
    34.00   1.9544    
    35.00   1.8669    
    36.00   1.7842    
    37.00   1.7059    
    38.00   1.6316    
    39.00   1.5610    
    40.00   1.4938    
    41.00   1.4299    
    42.00   1.3690    
    43.00   1.3111    
    44.00   1.2558    
    45.00   1.2032    
    46.00   1.1530    
    47.00   1.1052    
    48.00   1.0596    
    49.00   1.0162    
    50.00  0.97483    
    51.00  0.93544    
    52.00  0.89790    
    53.00  0.86216    
    54.00  0.82812    
    55.00  0.79571    
    56.00  0.76485    
    57.00  0.73546    
    58.00  0.70748    
    59.00  0.68084    
    60.00  0.65548    
    61.00  0.63133    
    62.00  0.60835    
    63.00  0.58647    
    64.00  0.56564    
    65.00  0.54582    
    66.00  0.52694    
    67.00  0.50897    
    68.00  0.49187    
    69.00  0.47559    
    70.00  0.46009    
    71.00  0.44534    
    72.00  0.43130    
    73.00  0.41795    
    74.00  0.40524    
    75.00  0.39315    
    76.00  0.38165    
    77.00  0.37071    
    78.00  0.36031    
    79.00  0.35043    
    80.00  0.34103    
    81.00  0.33211    
    82.00  0.32364    
    83.00  0.31560    
    84.00  0.30797    
    85.00  0.30073    
    86.00  0.29388    
    87.00  0.28739    
    88.00  0.28125    
    89.00  0.27544    
    90.00  0.26996    
    91.00  0.26479    
    92.00  0.25992    
    93.00  0.25534    
    94.00  0.25104    
    95.00  0.24701    
    96.00  0.24324    
    97.00  0.23972    
    98.00  0.23644    
    99.00  0.23340    
   100.00  0.23060    
   101.00  0.22801    
   102.00  0.22564    
   103.00  0.22348    
   104.00  0.22153    
   105.00  0.21978    
   106.00  0.21822    
   107.00  0.21686    
   108.00  0.21569    
   109.00  0.21470    
   110.00  0.21390    
   111.00  0.21328    
   112.00  0.21283    
   113.00  0.21256    
   114.00  0.21247    
   115.00  0.21256    
   116.00  0.21282    
   117.00  0.21326    
   118.00  0.21388    
   119.00  0.21467    
   120.00  0.21565    
   121.00  0.21682    
   122.00  0.21817    
   123.00  0.21972    
   124.00  0.22147    
   125.00  0.22343    
   126.00  0.22560    
   127.00  0.22800    
   128.00  0.23063    
   129.00  0.23350    
   130.00  0.23663    
   131.00  0.24004    
   132.00  0.24373    
   133.00  0.24774    
   134.00  0.25206    
   135.00  0.25674    
   136.00  0.26179    
   137.00  0.26725    
   138.00  0.27313    
   139.00  0.27948    
   140.00  0.28633    
   141.00  0.29373    
   142.00  0.30171    
   143.00  0.31034    
   144.00  0.31966    
   145.00  0.32974    
   146.00  0.34064    
   147.00  0.35242    
   148.00  0.36516    
   149.00  0.37893    
   150.00  0.39377    
   151.00  0.40973    
   152.00  0.42683    
   153.00  0.44502    
   154.00  0.46422    
   155.00  0.48423    
   156.00  0.50475    
   157.00  0.52536    
   158.00  0.54543    
   159.00  0.56420    
   160.00  0.58073    
   161.00  0.59392    
   162.00  0.60263    
   163.00  0.60575    
   164.00  0.60233    
   165.00  0.59185    
   166.00  0.57433    
   167.00  0.55053    
   168.00  0.52208    
   169.00  0.49138    
   170.00  0.46150    
   171.00  0.43585    
   172.00  0.41772    
   173.00  0.40975    
   174.00  0.41336    
   175.00  0.42818    
   176.00  0.45181    
   177.00  0.47980    
   178.00  0.50631    
   179.00  0.52530    
   180.00  0.53220    
 |--------|------------|
0.590000     micron = Wavelength
0.120191     = Extinction efficiency (Q)
0.110463     = Scattering efficiency (Qs)
0.972842E-02 = Absorption efficiency (Qa)
 25.6916     = Lidar ratio
0.446407E-02 micron^2 = <b> = Average surface area per particle
0.536542E-03 microns^2 = Extinction cross section (C)
0.493114E-03 microns^2 = Scattering cross section (Cs)
0.434284E-04 microns^2 = Absorption cross section (Ca)
 |----------------------------------------------------|
 | COMMENTAIRES:                                      |
 |----------------------------------------------------|
 |   -Cross section / <b> should = efficiency         |
 |    is independant of the normalisation of dN/dx    |
 |   -The integral of the phase fct / 4 pi over all   |
 |    directions (solid angle) = 1.                   |
 |   -The volume coefficient (k) is equal to C * N    |
 |      = cross section * Number density              |
 |      typical units: [um^2]*[particles/cm^3] =      |
 |      [10^-3 km-1]                                  |
 |      N = M/(d*4/3*pi*r^3) where d is the density   |
 |      of particle, M is the mass per unit volume    |
 |      and 4/3*pi*r^3 is the average volume  of a    |
 |      particle.                                     |
 |      typical units:  M -> [ug/m^3], d -> [g/cm^3]  |
 |                      r -> [um]                     |
 |      Lidar ratio= 4 pi Qe / phase_fct(180)*Qs      |
 |----------------------------------------------------|
