 |--------|------------|
 | ANGLE  |  PHASE FCT |
 |--------|------------|
     0.00   36.956    
     1.00   36.643    
     2.00   35.730    
     3.00   34.289    
     4.00   32.425    
     5.00   30.261    
     6.00   27.917    
     7.00   25.502    
     8.00   23.107    
     9.00   20.800    
    10.00   18.629    
    11.00   16.626    
    12.00   14.804    
    13.00   13.168    
    14.00   11.712    
    15.00   10.428    
    16.00   9.3006    
    17.00   8.3161    
    18.00   7.4587    
    19.00   6.7134    
    20.00   6.0656    
    21.00   5.5024    
    22.00   5.0120    
    23.00   4.5840    
    24.00   4.2091    
    25.00   3.8796    
    26.00   3.5886    
    27.00   3.3304    
    28.00   3.1001    
    29.00   2.8937    
    30.00   2.7077    
    31.00   2.5392    
    32.00   2.3858    
    33.00   2.2456    
    34.00   2.1169    
    35.00   1.9982    
    36.00   1.8884    
    37.00   1.7865    
    38.00   1.6917    
    39.00   1.6033    
    40.00   1.5206    
    41.00   1.4432    
    42.00   1.3706    
    43.00   1.3024    
    44.00   1.2382    
    45.00   1.1779    
    46.00   1.1210    
    47.00   1.0674    
    48.00   1.0168    
    49.00  0.96911    
    50.00  0.92406    
    51.00  0.88151    
    52.00  0.84131    
    53.00  0.80332    
    54.00  0.76740    
    55.00  0.73344    
    56.00  0.70131    
    57.00  0.67093    
    58.00  0.64217    
    59.00  0.61496    
    60.00  0.58921    
    61.00  0.56483    
    62.00  0.54174    
    63.00  0.51988    
    64.00  0.49917    
    65.00  0.47955    
    66.00  0.46097    
    67.00  0.44336    
    68.00  0.42667    
    69.00  0.41085    
    70.00  0.39586    
    71.00  0.38164    
    72.00  0.36816    
    73.00  0.35538    
    74.00  0.34327    
    75.00  0.33178    
    76.00  0.32088    
    77.00  0.31055    
    78.00  0.30076    
    79.00  0.29147    
    80.00  0.28267    
    81.00  0.27432    
    82.00  0.26642    
    83.00  0.25892    
    84.00  0.25182    
    85.00  0.24510    
    86.00  0.23874    
    87.00  0.23272    
    88.00  0.22703    
    89.00  0.22165    
    90.00  0.21658    
    91.00  0.21179    
    92.00  0.20727    
    93.00  0.20302    
    94.00  0.19902    
    95.00  0.19526    
    96.00  0.19174    
    97.00  0.18845    
    98.00  0.18537    
    99.00  0.18250    
   100.00  0.17984    
   101.00  0.17737    
   102.00  0.17510    
   103.00  0.17301    
   104.00  0.17110    
   105.00  0.16937    
   106.00  0.16781    
   107.00  0.16642    
   108.00  0.16520    
   109.00  0.16414    
   110.00  0.16324    
   111.00  0.16250    
   112.00  0.16191    
   113.00  0.16149    
   114.00  0.16122    
   115.00  0.16110    
   116.00  0.16115    
   117.00  0.16135    
   118.00  0.16171    
   119.00  0.16223    
   120.00  0.16292    
   121.00  0.16378    
   122.00  0.16481    
   123.00  0.16601    
   124.00  0.16740    
   125.00  0.16899    
   126.00  0.17077    
   127.00  0.17275    
   128.00  0.17496    
   129.00  0.17739    
   130.00  0.18006    
   131.00  0.18299    
   132.00  0.18619    
   133.00  0.18968    
   134.00  0.19347    
   135.00  0.19760    
   136.00  0.20207    
   137.00  0.20693    
   138.00  0.21220    
   139.00  0.21790    
   140.00  0.22407    
   141.00  0.23075    
   142.00  0.23797    
   143.00  0.24577    
   144.00  0.25419    
   145.00  0.26327    
   146.00  0.27304    
   147.00  0.28351    
   148.00  0.29472    
   149.00  0.30666    
   150.00  0.31930    
   151.00  0.33260    
   152.00  0.34645    
   153.00  0.36073    
   154.00  0.37520    
   155.00  0.38961    
   156.00  0.40358    
   157.00  0.41667    
   158.00  0.42834    
   159.00  0.43800    
   160.00  0.44502    
   161.00  0.44876    
   162.00  0.44867    
   163.00  0.44432    
   164.00  0.43555    
   165.00  0.42252    
   166.00  0.40584    
   167.00  0.38653    
   168.00  0.36608    
   169.00  0.34633    
   170.00  0.32930    
   171.00  0.31695    
   172.00  0.31090    
   173.00  0.31210    
   174.00  0.32057    
   175.00  0.33526    
   176.00  0.35404    
   177.00  0.37390    
   178.00  0.39145    
   179.00  0.40350    
   180.00  0.40780    
 |--------|------------|
0.720000     micron = Wavelength
0.119228     = Extinction efficiency (Q)
0.110570     = Scattering efficiency (Qs)
0.865757E-02 = Absorption efficiency (Qa)
 33.2282     = Lidar ratio
0.446406E-02 micron^2 = <b> = Average surface area per particle
0.532239E-03 microns^2 = Extinction cross section (C)
0.493591E-03 microns^2 = Scattering cross section (Cs)
0.386479E-04 microns^2 = Absorption cross section (Ca)
 |----------------------------------------------------|
 | COMMENTAIRES:                                      |
 |----------------------------------------------------|
 |   -Cross section / <b> should = efficiency         |
 |    is independant of the normalisation of dN/dx    |
 |   -The integral of the phase fct / 4 pi over all   |
 |    directions (solid angle) = 1.                   |
 |   -The volume coefficient (k) is equal to C * N    |
 |      = cross section * Number density              |
 |      typical units: [um^2]*[particles/cm^3] =      |
 |      [10^-3 km-1]                                  |
 |      N = M/(d*4/3*pi*r^3) where d is the density   |
 |      of particle, M is the mass per unit volume    |
 |      and 4/3*pi*r^3 is the average volume  of a    |
 |      particle.                                     |
 |      typical units:  M -> [ug/m^3], d -> [g/cm^3]  |
 |                      r -> [um]                     |
 |      Lidar ratio= 4 pi Qe / phase_fct(180)*Qs      |
 |----------------------------------------------------|
