 |--------|------------|
 | ANGLE  |  PHASE FCT |
 |--------|------------|
     0.00   57.509    
     1.00   56.455    
     2.00   53.466    
     3.00   48.997    
     4.00   43.637    
     5.00   37.955    
     6.00   32.400    
     7.00   27.270    
     8.00   22.730    
     9.00   18.839    
    10.00   15.586    
    11.00   12.916    
    12.00   10.756    
    13.00   9.0276    
    14.00   7.6541    
    15.00   6.5675    
    16.00   5.7094    
    17.00   5.0313    
    18.00   4.4936    
    19.00   4.0646    
    20.00   3.7193    
    21.00   3.4381    
    22.00   3.2060    
    23.00   3.0112    
    24.00   2.8450    
    25.00   2.7005    
    26.00   2.5728    
    27.00   2.4581    
    28.00   2.3536    
    29.00   2.2571    
    30.00   2.1673    
    31.00   2.0828    
    32.00   2.0030    
    33.00   1.9271    
    34.00   1.8548    
    35.00   1.7856    
    36.00   1.7194    
    37.00   1.6558    
    38.00   1.5948    
    39.00   1.5362    
    40.00   1.4798    
    41.00   1.4257    
    42.00   1.3737    
    43.00   1.3237    
    44.00   1.2757    
    45.00   1.2296    
    46.00   1.1853    
    47.00   1.1428    
    48.00   1.1020    
    49.00   1.0628    
    50.00   1.0252    
    51.00  0.98920    
    52.00  0.95463    
    53.00  0.92148    
    54.00  0.88970    
    55.00  0.85924    
    56.00  0.83004    
    57.00  0.80206    
    58.00  0.77526    
    59.00  0.74958    
    60.00  0.72498    
    61.00  0.70141    
    62.00  0.67885    
    63.00  0.65724    
    64.00  0.63656    
    65.00  0.61676    
    66.00  0.59781    
    67.00  0.57967    
    68.00  0.56233    
    69.00  0.54574    
    70.00  0.52987    
    71.00  0.51469    
    72.00  0.50019    
    73.00  0.48633    
    74.00  0.47309    
    75.00  0.46045    
    76.00  0.44838    
    77.00  0.43686    
    78.00  0.42587    
    79.00  0.41540    
    80.00  0.40541    
    81.00  0.39590    
    82.00  0.38685    
    83.00  0.37824    
    84.00  0.37006    
    85.00  0.36228    
    86.00  0.35490    
    87.00  0.34790    
    88.00  0.34128    
    89.00  0.33501    
    90.00  0.32908    
    91.00  0.32349    
    92.00  0.31822    
    93.00  0.31327    
    94.00  0.30862    
    95.00  0.30427    
    96.00  0.30020    
    97.00  0.29641    
    98.00  0.29289    
    99.00  0.28963    
   100.00  0.28663    
   101.00  0.28387    
   102.00  0.28135    
   103.00  0.27907    
   104.00  0.27702    
   105.00  0.27519    
   106.00  0.27358    
   107.00  0.27218    
   108.00  0.27100    
   109.00  0.27001    
   110.00  0.26923    
   111.00  0.26865    
   112.00  0.26826    
   113.00  0.26806    
   114.00  0.26805    
   115.00  0.26823    
   116.00  0.26860    
   117.00  0.26915    
   118.00  0.26989    
   119.00  0.27082    
   120.00  0.27193    
   121.00  0.27324    
   122.00  0.27474    
   123.00  0.27643    
   124.00  0.27833    
   125.00  0.28043    
   126.00  0.28275    
   127.00  0.28529    
   128.00  0.28806    
   129.00  0.29107    
   130.00  0.29433    
   131.00  0.29787    
   132.00  0.30168    
   133.00  0.30580    
   134.00  0.31023    
   135.00  0.31500    
   136.00  0.32013    
   137.00  0.32564    
   138.00  0.33157    
   139.00  0.33795    
   140.00  0.34480    
   141.00  0.35216    
   142.00  0.36007    
   143.00  0.36858    
   144.00  0.37772    
   145.00  0.38756    
   146.00  0.39815    
   147.00  0.40956    
   148.00  0.42186    
   149.00  0.43513    
   150.00  0.44947    
   151.00  0.46495    
   152.00  0.48166    
   153.00  0.49966    
   154.00  0.51897    
   155.00  0.53957    
   156.00  0.56131    
   157.00  0.58397    
   158.00  0.60710    
   159.00  0.63007    
   160.00  0.65202    
   161.00  0.67181    
   162.00  0.68811    
   163.00  0.69943    
   164.00  0.70430    
   165.00  0.70152    
   166.00  0.69035    
   167.00  0.67085    
   168.00  0.64402    
   169.00  0.61196    
   170.00  0.57772    
   171.00  0.54506    
   172.00  0.51811    
   173.00  0.50078    
   174.00  0.49615    
   175.00  0.50550    
   176.00  0.52757    
   177.00  0.55791    
   178.00  0.58920    
   179.00  0.61282    
   180.00  0.62163    
 |--------|------------|
0.500000     micron = Wavelength
0.129746     = Extinction efficiency (Q)
0.118887     = Scattering efficiency (Qs)
0.108591E-01 = Absorption efficiency (Qa)
 22.0618     = Lidar ratio
0.446405E-02 micron^2 = <b> = Average surface area per particle
0.579193E-03 microns^2 = Extinction cross section (C)
0.530718E-03 microns^2 = Scattering cross section (Cs)
0.484757E-04 microns^2 = Absorption cross section (Ca)
 |----------------------------------------------------|
 | COMMENTAIRES:                                      |
 |----------------------------------------------------|
 |   -Cross section / <b> should = efficiency         |
 |    is independant of the normalisation of dN/dx    |
 |   -The integral of the phase fct / 4 pi over all   |
 |    directions (solid angle) = 1.                   |
 |   -The volume coefficient (k) is equal to C * N    |
 |      = cross section * Number density              |
 |      typical units: [um^2]*[particles/cm^3] =      |
 |      [10^-3 km-1]                                  |
 |      N = M/(d*4/3*pi*r^3) where d is the density   |
 |      of particle, M is the mass per unit volume    |
 |      and 4/3*pi*r^3 is the average volume  of a    |
 |      particle.                                     |
 |      typical units:  M -> [ug/m^3], d -> [g/cm^3]  |
 |                      r -> [um]                     |
 |      Lidar ratio= 4 pi Qe / phase_fct(180)*Qs      |
 |----------------------------------------------------|
