 |--------|------------|
 | ANGLE  |  PHASE FCT |
 |--------|------------|
     0.00   29.376    
     1.00   29.203    
     2.00   28.693    
     3.00   27.877    
     4.00   26.798    
     5.00   25.509    
     6.00   24.068    
     7.00   22.530    
     8.00   20.945    
     9.00   19.356    
    10.00   17.800    
    11.00   16.303    
    12.00   14.884    
    13.00   13.555    
    14.00   12.323    
    15.00   11.191    
    16.00   10.158    
    17.00   9.2208    
    18.00   8.3742    
    19.00   7.6120    
    20.00   6.9278    
    21.00   6.3147    
    22.00   5.7660    
    23.00   5.2751    
    24.00   4.8359    
    25.00   4.4428    
    26.00   4.0905    
    27.00   3.7744    
    28.00   3.4902    
    29.00   3.2343    
    30.00   3.0032    
    31.00   2.7941    
    32.00   2.6045    
    33.00   2.4320    
    34.00   2.2748    
    35.00   2.1310    
    36.00   1.9993    
    37.00   1.8783    
    38.00   1.7669    
    39.00   1.6642    
    40.00   1.5691    
    41.00   1.4811    
    42.00   1.3993    
    43.00   1.3233    
    44.00   1.2526    
    45.00   1.1866    
    46.00   1.1249    
    47.00   1.0673    
    48.00   1.0134    
    49.00  0.96280    
    50.00  0.91539    
    51.00  0.87087    
    52.00  0.82905    
    53.00  0.78972    
    54.00  0.75272    
    55.00  0.71789    
    56.00  0.68507    
    57.00  0.65414    
    58.00  0.62498    
    59.00  0.59746    
    60.00  0.57150    
    61.00  0.54698    
    62.00  0.52382    
    63.00  0.50193    
    64.00  0.48125    
    65.00  0.46169    
    66.00  0.44319    
    67.00  0.42569    
    68.00  0.40913    
    69.00  0.39345    
    70.00  0.37861    
    71.00  0.36456    
    72.00  0.35125    
    73.00  0.33865    
    74.00  0.32671    
    75.00  0.31539    
    76.00  0.30467    
    77.00  0.29451    
    78.00  0.28488    
    79.00  0.27576    
    80.00  0.26712    
    81.00  0.25893    
    82.00  0.25117    
    83.00  0.24382    
    84.00  0.23686    
    85.00  0.23026    
    86.00  0.22403    
    87.00  0.21812    
    88.00  0.21254    
    89.00  0.20726    
    90.00  0.20228    
    91.00  0.19757    
    92.00  0.19313    
    93.00  0.18895    
    94.00  0.18501    
    95.00  0.18130    
    96.00  0.17783    
    97.00  0.17457    
    98.00  0.17152    
    99.00  0.16867    
   100.00  0.16601    
   101.00  0.16355    
   102.00  0.16127    
   103.00  0.15916    
   104.00  0.15723    
   105.00  0.15547    
   106.00  0.15387    
   107.00  0.15243    
   108.00  0.15115    
   109.00  0.15003    
   110.00  0.14905    
   111.00  0.14823    
   112.00  0.14756    
   113.00  0.14703    
   114.00  0.14666    
   115.00  0.14643    
   116.00  0.14635    
   117.00  0.14642    
   118.00  0.14664    
   119.00  0.14702    
   120.00  0.14755    
   121.00  0.14824    
   122.00  0.14910    
   123.00  0.15013    
   124.00  0.15133    
   125.00  0.15272    
   126.00  0.15429    
   127.00  0.15607    
   128.00  0.15805    
   129.00  0.16026    
   130.00  0.16269    
   131.00  0.16538    
   132.00  0.16832    
   133.00  0.17153    
   134.00  0.17504    
   135.00  0.17887    
   136.00  0.18302    
   137.00  0.18753    
   138.00  0.19241    
   139.00  0.19769    
   140.00  0.20339    
   141.00  0.20953    
   142.00  0.21613    
   143.00  0.22321    
   144.00  0.23077    
   145.00  0.23883    
   146.00  0.24737    
   147.00  0.25638    
   148.00  0.26583    
   149.00  0.27566    
   150.00  0.28580    
   151.00  0.29613    
   152.00  0.30652    
   153.00  0.31678    
   154.00  0.32669    
   155.00  0.33599    
   156.00  0.34438    
   157.00  0.35153    
   158.00  0.35711    
   159.00  0.36077    
   160.00  0.36222    
   161.00  0.36123    
   162.00  0.35767    
   163.00  0.35160    
   164.00  0.34324    
   165.00  0.33306    
   166.00  0.32176    
   167.00  0.31023    
   168.00  0.29956    
   169.00  0.29087    
   170.00  0.28526    
   171.00  0.28362    
   172.00  0.28649    
   173.00  0.29392    
   174.00  0.30541    
   175.00  0.31988    
   176.00  0.33573    
   177.00  0.35102    
   178.00  0.36378    
   179.00  0.37223    
   180.00  0.37520    
 |--------|------------|
0.710000     micron = Wavelength
0.113436     = Extinction efficiency (Q)
0.105756     = Scattering efficiency (Qs)
0.767935E-02 = Absorption efficiency (Qa)
 35.9249     = Lidar ratio
0.336362E-02 micron^2 = <b> = Average surface area per particle
0.381555E-03 microns^2 = Extinction cross section (C)
0.355725E-03 microns^2 = Scattering cross section (Cs)
0.258304E-04 microns^2 = Absorption cross section (Ca)
 |----------------------------------------------------|
 | COMMENTAIRES:                                      |
 |----------------------------------------------------|
 |   -Cross section / <b> should = efficiency         |
 |    is independant of the normalisation of dN/dx    |
 |   -The integral of the phase fct / 4 pi over all   |
 |    directions (solid angle) = 1.                   |
 |   -The volume coefficient (k) is equal to C * N    |
 |      = cross section * Number density              |
 |      typical units: [um^2]*[particles/cm^3] =      |
 |      [10^-3 km-1]                                  |
 |      N = M/(d*4/3*pi*r^3) where d is the density   |
 |      of particle, M is the mass per unit volume    |
 |      and 4/3*pi*r^3 is the average volume  of a    |
 |      particle.                                     |
 |      typical units:  M -> [ug/m^3], d -> [g/cm^3]  |
 |                      r -> [um]                     |
 |      Lidar ratio= 4 pi Qe / phase_fct(180)*Qs      |
 |----------------------------------------------------|
