 |--------|------------|
 | ANGLE  |  PHASE FCT |
 |--------|------------|
     0.00   44.001    
     1.00   43.500    
     2.00   42.053    
     3.00   39.805    
     4.00   36.965    
     5.00   33.759    
     6.00   30.396    
     7.00   27.052    
     8.00   23.856    
     9.00   20.894    
    10.00   18.215    
    11.00   15.838    
    12.00   13.761    
    13.00   11.969    
    14.00   10.436    
    15.00   9.1336    
    16.00   8.0335    
    17.00   7.1068    
    18.00   6.3274    
    19.00   5.6715    
    20.00   5.1187    
    21.00   4.6511    
    22.00   4.2537    
    23.00   3.9139    
    24.00   3.6212    
    25.00   3.3670    
    26.00   3.1444    
    27.00   2.9476    
    28.00   2.7721    
    29.00   2.6142    
    30.00   2.4710    
    31.00   2.3401    
    32.00   2.2196    
    33.00   2.1081    
    34.00   2.0043    
    35.00   1.9074    
    36.00   1.8165    
    37.00   1.7310    
    38.00   1.6504    
    39.00   1.5742    
    40.00   1.5022    
    41.00   1.4340    
    42.00   1.3693    
    43.00   1.3080    
    44.00   1.2498    
    45.00   1.1945    
    46.00   1.1421    
    47.00   1.0922    
    48.00   1.0449    
    49.00  0.99990    
    50.00  0.95718    
    51.00  0.91659    
    52.00  0.87803    
    53.00  0.84141    
    54.00  0.80661    
    55.00  0.77355    
    56.00  0.74215    
    57.00  0.71232    
    58.00  0.68398    
    59.00  0.65706    
    60.00  0.63148    
    61.00  0.60717    
    62.00  0.58408    
    63.00  0.56214    
    64.00  0.54130    
    65.00  0.52149    
    66.00  0.50266    
    67.00  0.48478    
    68.00  0.46778    
    69.00  0.45162    
    70.00  0.43627    
    71.00  0.42168    
    72.00  0.40782    
    73.00  0.39464    
    74.00  0.38212    
    75.00  0.37023    
    76.00  0.35892    
    77.00  0.34819    
    78.00  0.33799    
    79.00  0.32831    
    80.00  0.31912    
    81.00  0.31040    
    82.00  0.30212    
    83.00  0.29426    
    84.00  0.28682    
    85.00  0.27976    
    86.00  0.27308    
    87.00  0.26676    
    88.00  0.26077    
    89.00  0.25512    
    90.00  0.24978    
    91.00  0.24475    
    92.00  0.24000    
    93.00  0.23554    
    94.00  0.23135    
    95.00  0.22742    
    96.00  0.22373    
    97.00  0.22029    
    98.00  0.21709    
    99.00  0.21411    
   100.00  0.21136    
   101.00  0.20882    
   102.00  0.20648    
   103.00  0.20435    
   104.00  0.20242    
   105.00  0.20067    
   106.00  0.19912    
   107.00  0.19775    
   108.00  0.19656    
   109.00  0.19556    
   110.00  0.19472    
   111.00  0.19406    
   112.00  0.19357    
   113.00  0.19325    
   114.00  0.19311    
   115.00  0.19313    
   116.00  0.19332    
   117.00  0.19368    
   118.00  0.19422    
   119.00  0.19493    
   120.00  0.19582    
   121.00  0.19689    
   122.00  0.19814    
   123.00  0.19958    
   124.00  0.20122    
   125.00  0.20307    
   126.00  0.20512    
   127.00  0.20739    
   128.00  0.20990    
   129.00  0.21264    
   130.00  0.21564    
   131.00  0.21891    
   132.00  0.22246    
   133.00  0.22631    
   134.00  0.23049    
   135.00  0.23501    
   136.00  0.23991    
   137.00  0.24520    
   138.00  0.25092    
   139.00  0.25710    
   140.00  0.26378    
   141.00  0.27101    
   142.00  0.27882    
   143.00  0.28726    
   144.00  0.29640    
   145.00  0.30627    
   146.00  0.31695    
   147.00  0.32848    
   148.00  0.34093    
   149.00  0.35434    
   150.00  0.36874    
   151.00  0.38414    
   152.00  0.40052    
   153.00  0.41780    
   154.00  0.43583    
   155.00  0.45438    
   156.00  0.47310    
   157.00  0.49153    
   158.00  0.50906    
   159.00  0.52493    
   160.00  0.53828    
   161.00  0.54812    
   162.00  0.55351    
   163.00  0.55354    
   164.00  0.54758    
   165.00  0.53535    
   166.00  0.51714    
   167.00  0.49389    
   168.00  0.46724    
   169.00  0.43952    
   170.00  0.41352    
   171.00  0.39220    
   172.00  0.37830    
   173.00  0.37385    
   174.00  0.37967    
   175.00  0.39505    
   176.00  0.41752    
   177.00  0.44304    
   178.00  0.46660    
   179.00  0.48322    
   180.00  0.48921    
 |--------|------------|
0.630000     micron = Wavelength
0.119021     = Extinction efficiency (Q)
0.109613     = Scattering efficiency (Qs)
0.940797E-02 = Absorption efficiency (Qa)
 27.8915     = Lidar ratio
0.446406E-02 micron^2 = <b> = Average surface area per particle
0.531316E-03 microns^2 = Extinction cross section (C)
0.489318E-03 microns^2 = Scattering cross section (Cs)
0.419978E-04 microns^2 = Absorption cross section (Ca)
 |----------------------------------------------------|
 | COMMENTAIRES:                                      |
 |----------------------------------------------------|
 |   -Cross section / <b> should = efficiency         |
 |    is independant of the normalisation of dN/dx    |
 |   -The integral of the phase fct / 4 pi over all   |
 |    directions (solid angle) = 1.                   |
 |   -The volume coefficient (k) is equal to C * N    |
 |      = cross section * Number density              |
 |      typical units: [um^2]*[particles/cm^3] =      |
 |      [10^-3 km-1]                                  |
 |      N = M/(d*4/3*pi*r^3) where d is the density   |
 |      of particle, M is the mass per unit volume    |
 |      and 4/3*pi*r^3 is the average volume  of a    |
 |      particle.                                     |
 |      typical units:  M -> [ug/m^3], d -> [g/cm^3]  |
 |                      r -> [um]                     |
 |      Lidar ratio= 4 pi Qe / phase_fct(180)*Qs      |
 |----------------------------------------------------|
