 |--------|------------|
 | ANGLE  |  PHASE FCT |
 |--------|------------|
     0.00   33.856    
     1.00   33.596    
     2.00   32.835    
     3.00   31.630    
     4.00   30.061    
     5.00   28.223    
     6.00   26.213    
     7.00   24.121    
     8.00   22.022    
     9.00   19.978    
    10.00   18.031    
    11.00   16.213    
    12.00   14.541    
    13.00   13.021    
    14.00   11.653    
    15.00   10.433    
    16.00   9.3501    
    17.00   8.3947    
    18.00   7.5546    
    19.00   6.8176    
    20.00   6.1717    
    21.00   5.6059    
    22.00   5.1099    
    23.00   4.6745    
    24.00   4.2914    
    25.00   3.9534    
    26.00   3.6542    
    27.00   3.3883    
    28.00   3.1509    
    29.00   2.9381    
    30.00   2.7465    
    31.00   2.5733    
    32.00   2.4158    
    33.00   2.2722    
    34.00   2.1406    
    35.00   2.0196    
    36.00   1.9079    
    37.00   1.8045    
    38.00   1.7086    
    39.00   1.6192    
    40.00   1.5359    
    41.00   1.4580    
    42.00   1.3850    
    43.00   1.3166    
    44.00   1.2523    
    45.00   1.1919    
    46.00   1.1350    
    47.00   1.0814    
    48.00   1.0308    
    49.00  0.98313    
    50.00  0.93810    
    51.00  0.89557    
    52.00  0.85538    
    53.00  0.81739    
    54.00  0.78145    
    55.00  0.74746    
    56.00  0.71529    
    57.00  0.68484    
    58.00  0.65601    
    59.00  0.62871    
    60.00  0.60285    
    61.00  0.57836    
    62.00  0.55514    
    63.00  0.53314    
    64.00  0.51228    
    65.00  0.49251    
    66.00  0.47376    
    67.00  0.45598    
    68.00  0.43912    
    69.00  0.42312    
    70.00  0.40795    
    71.00  0.39355    
    72.00  0.37989    
    73.00  0.36693    
    74.00  0.35463    
    75.00  0.34295    
    76.00  0.33188    
    77.00  0.32137    
    78.00  0.31140    
    79.00  0.30194    
    80.00  0.29297    
    81.00  0.28446    
    82.00  0.27639    
    83.00  0.26874    
    84.00  0.26149    
    85.00  0.25462    
    86.00  0.24812    
    87.00  0.24197    
    88.00  0.23615    
    89.00  0.23065    
    90.00  0.22545    
    91.00  0.22055    
    92.00  0.21592    
    93.00  0.21157    
    94.00  0.20748    
    95.00  0.20363    
    96.00  0.20003    
    97.00  0.19665    
    98.00  0.19350    
    99.00  0.19056    
   100.00  0.18784    
   101.00  0.18531    
   102.00  0.18299    
   103.00  0.18085    
   104.00  0.17890    
   105.00  0.17713    
   106.00  0.17553    
   107.00  0.17411    
   108.00  0.17286    
   109.00  0.17178    
   110.00  0.17086    
   111.00  0.17010    
   112.00  0.16950    
   113.00  0.16907    
   114.00  0.16879    
   115.00  0.16867    
   116.00  0.16871    
   117.00  0.16892    
   118.00  0.16928    
   119.00  0.16981    
   120.00  0.17050    
   121.00  0.17137    
   122.00  0.17241    
   123.00  0.17363    
   124.00  0.17503    
   125.00  0.17663    
   126.00  0.17843    
   127.00  0.18044    
   128.00  0.18267    
   129.00  0.18514    
   130.00  0.18785    
   131.00  0.19082    
   132.00  0.19407    
   133.00  0.19762    
   134.00  0.20148    
   135.00  0.20568    
   136.00  0.21025    
   137.00  0.21522    
   138.00  0.22060    
   139.00  0.22644    
   140.00  0.23277    
   141.00  0.23962    
   142.00  0.24704    
   143.00  0.25505    
   144.00  0.26369    
   145.00  0.27300    
   146.00  0.28299    
   147.00  0.29368    
   148.00  0.30508    
   149.00  0.31715    
   150.00  0.32987    
   151.00  0.34313    
   152.00  0.35682    
   153.00  0.37076    
   154.00  0.38470    
   155.00  0.39835    
   156.00  0.41131    
   157.00  0.42315    
   158.00  0.43335    
   159.00  0.44136    
   160.00  0.44666    
   161.00  0.44873    
   162.00  0.44719    
   163.00  0.44183    
   164.00  0.43270    
   165.00  0.42017    
   166.00  0.40499    
   167.00  0.38829    
   168.00  0.37153    
   169.00  0.35639    
   170.00  0.34461    
   171.00  0.33777    
   172.00  0.33704    
   173.00  0.34293    
   174.00  0.35513    
   175.00  0.37239    
   176.00  0.39258    
   177.00  0.41290    
   178.00  0.43033    
   179.00  0.44209    
   180.00  0.44624    
 |--------|------------|
0.630000     micron = Wavelength
0.112609     = Extinction efficiency (Q)
0.104277     = Scattering efficiency (Qs)
0.833159E-02 = Absorption efficiency (Qa)
 30.4106     = Lidar ratio
0.336362E-02 micron^2 = <b> = Average surface area per particle
0.378774E-03 microns^2 = Extinction cross section (C)
0.350750E-03 microns^2 = Scattering cross section (Cs)
0.280243E-04 microns^2 = Absorption cross section (Ca)
 |----------------------------------------------------|
 | COMMENTAIRES:                                      |
 |----------------------------------------------------|
 |   -Cross section / <b> should = efficiency         |
 |    is independant of the normalisation of dN/dx    |
 |   -The integral of the phase fct / 4 pi over all   |
 |    directions (solid angle) = 1.                   |
 |   -The volume coefficient (k) is equal to C * N    |
 |      = cross section * Number density              |
 |      typical units: [um^2]*[particles/cm^3] =      |
 |      [10^-3 km-1]                                  |
 |      N = M/(d*4/3*pi*r^3) where d is the density   |
 |      of particle, M is the mass per unit volume    |
 |      and 4/3*pi*r^3 is the average volume  of a    |
 |      particle.                                     |
 |      typical units:  M -> [ug/m^3], d -> [g/cm^3]  |
 |                      r -> [um]                     |
 |      Lidar ratio= 4 pi Qe / phase_fct(180)*Qs      |
 |----------------------------------------------------|
