 |--------|------------|
 | ANGLE  |  PHASE FCT |
 |--------|------------|
     0.00   166.25    
     1.00   156.26    
     2.00   130.47    
     3.00   98.459    
     4.00   69.116    
     5.00   46.741    
     6.00   31.403    
     7.00   21.398    
     8.00   15.029    
     9.00   11.052    
    10.00   8.5765    
    11.00   7.0019    
    12.00   5.9678    
    13.00   5.2636    
    14.00   4.7594    
    15.00   4.3795    
    16.00   4.0816    
    17.00   3.8372    
    18.00   3.6271    
    19.00   3.4427    
    20.00   3.2798    
    21.00   3.1330    
    22.00   2.9975    
    23.00   2.8713    
    24.00   2.7542    
    25.00   2.6453    
    26.00   2.5429    
    27.00   2.4457    
    28.00   2.3534    
    29.00   2.2663    
    30.00   2.1839    
    31.00   2.1049    
    32.00   2.0292    
    33.00   1.9572    
    34.00   1.8886    
    35.00   1.8227    
    36.00   1.7592    
    37.00   1.6984    
    38.00   1.6404    
    39.00   1.5844    
    40.00   1.5304    
    41.00   1.4785    
    42.00   1.4288    
    43.00   1.3808    
    44.00   1.3343    
    45.00   1.2897    
    46.00   1.2468    
    47.00   1.2054    
    48.00   1.1653    
    49.00   1.1267    
    50.00   1.0896    
    51.00   1.0538    
    52.00   1.0191    
    53.00  0.98564    
    54.00  0.95348    
    55.00  0.92240    
    56.00  0.89236    
    57.00  0.86342    
    58.00  0.83558    
    59.00  0.80868    
    60.00  0.78271    
    61.00  0.75771    
    62.00  0.73366    
    63.00  0.71046    
    64.00  0.68808    
    65.00  0.66656    
    66.00  0.64588    
    67.00  0.62595    
    68.00  0.60677    
    69.00  0.58835    
    70.00  0.57068    
    71.00  0.55369    
    72.00  0.53736    
    73.00  0.52173    
    74.00  0.50675    
    75.00  0.49238    
    76.00  0.47862    
    77.00  0.46548    
    78.00  0.45292    
    79.00  0.44091    
    80.00  0.42945    
    81.00  0.41853    
    82.00  0.40812    
    83.00  0.39821    
    84.00  0.38879    
    85.00  0.37984    
    86.00  0.37133    
    87.00  0.36327    
    88.00  0.35562    
    89.00  0.34838    
    90.00  0.34152    
    91.00  0.33505    
    92.00  0.32892    
    93.00  0.32313    
    94.00  0.31768    
    95.00  0.31254    
    96.00  0.30770    
    97.00  0.30314    
    98.00  0.29887    
    99.00  0.29486    
   100.00  0.29109    
   101.00  0.28758    
   102.00  0.28431    
   103.00  0.28125    
   104.00  0.27841    
   105.00  0.27579    
   106.00  0.27337    
   107.00  0.27115    
   108.00  0.26912    
   109.00  0.26728    
   110.00  0.26562    
   111.00  0.26414    
   112.00  0.26283    
   113.00  0.26170    
   114.00  0.26073    
   115.00  0.25992    
   116.00  0.25928    
   117.00  0.25880    
   118.00  0.25849    
   119.00  0.25833    
   120.00  0.25834    
   121.00  0.25850    
   122.00  0.25884    
   123.00  0.25934    
   124.00  0.26002    
   125.00  0.26088    
   126.00  0.26193    
   127.00  0.26318    
   128.00  0.26465    
   129.00  0.26635    
   130.00  0.26830    
   131.00  0.27052    
   132.00  0.27304    
   133.00  0.27587    
   134.00  0.27906    
   135.00  0.28264    
   136.00  0.28665    
   137.00  0.29111    
   138.00  0.29608    
   139.00  0.30160    
   140.00  0.30769    
   141.00  0.31439    
   142.00  0.32170    
   143.00  0.32965    
   144.00  0.33820    
   145.00  0.34733    
   146.00  0.35698    
   147.00  0.36702    
   148.00  0.37732    
   149.00  0.38771    
   150.00  0.39799    
   151.00  0.40790    
   152.00  0.41719    
   153.00  0.42564    
   154.00  0.43299    
   155.00  0.43904    
   156.00  0.44381    
   157.00  0.44739    
   158.00  0.44995    
   159.00  0.45192    
   160.00  0.45397    
   161.00  0.45673    
   162.00  0.46091    
   163.00  0.46743    
   164.00  0.47690    
   165.00  0.48925    
   166.00  0.50397    
   167.00  0.52012    
   168.00  0.53602    
   169.00  0.55016    
   170.00  0.56230    
   171.00  0.57212    
   172.00  0.57741    
   173.00  0.57540    
   174.00  0.56452    
   175.00  0.54535    
   176.00  0.52520    
   177.00  0.52096    
   178.00  0.54536    
   179.00  0.58489    
   180.00  0.60454    
 |--------|------------|
0.540000     micron = Wavelength
0.252323     = Extinction efficiency (Q)
0.233092     = Scattering efficiency (Qs)
0.192308E-01 = Absorption efficiency (Qa)
 22.5017     = Lidar ratio
0.116569E-01 micron^2 = <b> = Average surface area per particle
0.294130E-02 microns^2 = Extinction cross section (C)
0.271713E-02 microns^2 = Scattering cross section (Cs)
0.224171E-03 microns^2 = Absorption cross section (Ca)
 |----------------------------------------------------|
 | COMMENTAIRES:                                      |
 |----------------------------------------------------|
 |   -Cross section / <b> should = efficiency         |
 |    is independant of the normalisation of dN/dx    |
 |   -The integral of the phase fct / 4 pi over all   |
 |    directions (solid angle) = 1.                   |
 |   -The volume coefficient (k) is equal to C * N    |
 |      = cross section * Number density              |
 |      typical units: [um^2]*[particles/cm^3] =      |
 |      [10^-3 km-1]                                  |
 |      N = M/(d*4/3*pi*r^3) where d is the density   |
 |      of particle, M is the mass per unit volume    |
 |      and 4/3*pi*r^3 is the average volume  of a    |
 |      particle.                                     |
 |      typical units:  M -> [ug/m^3], d -> [g/cm^3]  |
 |                      r -> [um]                     |
 |      Lidar ratio= 4 pi Qe / phase_fct(180)*Qs      |
 |----------------------------------------------------|
