 |--------|------------|
 | ANGLE  |  PHASE FCT |
 |--------|------------|
     0.00   54.270    
     1.00   53.384    
     2.00   50.857    
     3.00   47.037    
     4.00   42.388    
     5.00   37.371    
     6.00   32.369    
     7.00   27.655    
     8.00   23.395    
     9.00   19.666    
    10.00   16.482    
    11.00   13.816    
    12.00   11.615    
    13.00   9.8187    
    14.00   8.3646    
    15.00   7.1940    
    16.00   6.2542    
    17.00   5.5002    
    18.00   4.8944    
    19.00   4.4056    
    20.00   4.0086    
    21.00   3.6833    
    22.00   3.4139    
    23.00   3.1876    
    24.00   2.9948    
    25.00   2.8281    
    26.00   2.6816    
    27.00   2.5510    
    28.00   2.4329    
    29.00   2.3248    
    30.00   2.2249    
    31.00   2.1317    
    32.00   2.0441    
    33.00   1.9613    
    34.00   1.8829    
    35.00   1.8082    
    36.00   1.7369    
    37.00   1.6688    
    38.00   1.6036    
    39.00   1.5412    
    40.00   1.4814    
    41.00   1.4241    
    42.00   1.3692    
    43.00   1.3166    
    44.00   1.2662    
    45.00   1.2179    
    46.00   1.1716    
    47.00   1.1273    
    48.00   1.0848    
    49.00   1.0442    
    50.00   1.0053    
    51.00  0.96815    
    52.00  0.93256    
    53.00  0.89852    
    54.00  0.86597    
    55.00  0.83484    
    56.00  0.80507    
    57.00  0.77661    
    58.00  0.74941    
    59.00  0.72341    
    60.00  0.69856    
    61.00  0.67482    
    62.00  0.65213    
    63.00  0.63045    
    64.00  0.60975    
    65.00  0.58996    
    66.00  0.57107    
    67.00  0.55302    
    68.00  0.53579    
    69.00  0.51934    
    70.00  0.50363    
    71.00  0.48864    
    72.00  0.47434    
    73.00  0.46069    
    74.00  0.44767    
    75.00  0.43525    
    76.00  0.42342    
    77.00  0.41214    
    78.00  0.40139    
    79.00  0.39115    
    80.00  0.38141    
    81.00  0.37213    
    82.00  0.36332    
    83.00  0.35493    
    84.00  0.34697    
    85.00  0.33942    
    86.00  0.33225    
    87.00  0.32546    
    88.00  0.31903    
    89.00  0.31295    
    90.00  0.30721    
    91.00  0.30179    
    92.00  0.29669    
    93.00  0.29189    
    94.00  0.28739    
    95.00  0.28317    
    96.00  0.27923    
    97.00  0.27556    
    98.00  0.27214    
    99.00  0.26898    
   100.00  0.26607    
   101.00  0.26339    
   102.00  0.26095    
   103.00  0.25873    
   104.00  0.25673    
   105.00  0.25495    
   106.00  0.25337    
   107.00  0.25201    
   108.00  0.25084    
   109.00  0.24988    
   110.00  0.24910    
   111.00  0.24852    
   112.00  0.24813    
   113.00  0.24793    
   114.00  0.24791    
   115.00  0.24808    
   116.00  0.24842    
   117.00  0.24896    
   118.00  0.24967    
   119.00  0.25058    
   120.00  0.25167    
   121.00  0.25295    
   122.00  0.25442    
   123.00  0.25609    
   124.00  0.25796    
   125.00  0.26004    
   126.00  0.26234    
   127.00  0.26486    
   128.00  0.26762    
   129.00  0.27062    
   130.00  0.27387    
   131.00  0.27740    
   132.00  0.28122    
   133.00  0.28534    
   134.00  0.28978    
   135.00  0.29456    
   136.00  0.29972    
   137.00  0.30527    
   138.00  0.31124    
   139.00  0.31766    
   140.00  0.32457    
   141.00  0.33201    
   142.00  0.34002    
   143.00  0.34864    
   144.00  0.35793    
   145.00  0.36795    
   146.00  0.37875    
   147.00  0.39042    
   148.00  0.40302    
   149.00  0.41664    
   150.00  0.43136    
   151.00  0.44727    
   152.00  0.46441    
   153.00  0.48283    
   154.00  0.50252    
   155.00  0.52338    
   156.00  0.54523    
   157.00  0.56774    
   158.00  0.59040    
   159.00  0.61250    
   160.00  0.63309    
   161.00  0.65101    
   162.00  0.66495    
   163.00  0.67349    
   164.00  0.67532    
   165.00  0.66944    
   166.00  0.65539    
   167.00  0.63349    
   168.00  0.60504    
   169.00  0.57236    
   170.00  0.53862    
   171.00  0.50760    
   172.00  0.48325    
   173.00  0.46914    
   174.00  0.46774    
   175.00  0.47965    
   176.00  0.50301    
   177.00  0.53318    
   178.00  0.56322    
   179.00  0.58543    
   180.00  0.59362    
 |--------|------------|
0.530000     micron = Wavelength
0.125186     = Extinction efficiency (Q)
0.114578     = Scattering efficiency (Qs)
0.106086E-01 = Absorption efficiency (Qa)
 23.1290     = Lidar ratio
0.446407E-02 micron^2 = <b> = Average surface area per particle
0.558841E-03 microns^2 = Extinction cross section (C)
0.511483E-03 microns^2 = Scattering cross section (Cs)
0.473575E-04 microns^2 = Absorption cross section (Ca)
 |----------------------------------------------------|
 | COMMENTAIRES:                                      |
 |----------------------------------------------------|
 |   -Cross section / <b> should = efficiency         |
 |    is independant of the normalisation of dN/dx    |
 |   -The integral of the phase fct / 4 pi over all   |
 |    directions (solid angle) = 1.                   |
 |   -The volume coefficient (k) is equal to C * N    |
 |      = cross section * Number density              |
 |      typical units: [um^2]*[particles/cm^3] =      |
 |      [10^-3 km-1]                                  |
 |      N = M/(d*4/3*pi*r^3) where d is the density   |
 |      of particle, M is the mass per unit volume    |
 |      and 4/3*pi*r^3 is the average volume  of a    |
 |      particle.                                     |
 |      typical units:  M -> [ug/m^3], d -> [g/cm^3]  |
 |                      r -> [um]                     |
 |      Lidar ratio= 4 pi Qe / phase_fct(180)*Qs      |
 |----------------------------------------------------|
