 |--------|------------|
 | ANGLE  |  PHASE FCT |
 |--------|------------|
     0.00   168.29    
     1.00   157.05    
     2.00   128.38    
     3.00   93.678    
     4.00   63.120    
     5.00   41.046    
     6.00   26.800    
     7.00   17.995    
     8.00   12.634    
     9.00   9.4221    
    10.00   7.4918    
    11.00   6.2846    
    12.00   5.4919    
    13.00   4.9470    
    14.00   4.5488    
    15.00   4.2406    
    16.00   3.9934    
    17.00   3.7856    
    18.00   3.6023    
    19.00   3.4388    
    20.00   3.2936    
    21.00   3.1617    
    22.00   3.0383    
    23.00   2.9221    
    24.00   2.8139    
    25.00   2.7130    
    26.00   2.6173    
    27.00   2.5254    
    28.00   2.4375    
    29.00   2.3544    
    30.00   2.2753    
    31.00   2.1989    
    32.00   2.1250    
    33.00   2.0544    
    34.00   1.9871    
    35.00   1.9219    
    36.00   1.8585    
    37.00   1.7977    
    38.00   1.7395    
    39.00   1.6831    
    40.00   1.6282    
    41.00   1.5754    
    42.00   1.5247    
    43.00   1.4755    
    44.00   1.4276    
    45.00   1.3815    
    46.00   1.3371    
    47.00   1.2940    
    48.00   1.2521    
    49.00   1.2117    
    50.00   1.1728    
    51.00   1.1351    
    52.00   1.0984    
    53.00   1.0630    
    54.00   1.0289    
    55.00  0.99582    
    56.00  0.96374    
    57.00  0.93281    
    58.00  0.90299    
    59.00  0.87410    
    60.00  0.84613    
    61.00  0.81918    
    62.00  0.79321    
    63.00  0.76809    
    64.00  0.74381    
    65.00  0.72044    
    66.00  0.69795    
    67.00  0.67624    
    68.00  0.65529    
    69.00  0.63516    
    70.00  0.61581    
    71.00  0.59718    
    72.00  0.57924    
    73.00  0.56205    
    74.00  0.54556    
    75.00  0.52971    
    76.00  0.51451    
    77.00  0.49997    
    78.00  0.48607    
    79.00  0.47274    
    80.00  0.46001    
    81.00  0.44787    
    82.00  0.43629    
    83.00  0.42523    
    84.00  0.41471    
    85.00  0.40471    
    86.00  0.39519    
    87.00  0.38614    
    88.00  0.37756    
    89.00  0.36941    
    90.00  0.36170    
    91.00  0.35439    
    92.00  0.34747    
    93.00  0.34092    
    94.00  0.33475    
    95.00  0.32891    
    96.00  0.32340    
    97.00  0.31821    
    98.00  0.31333    
    99.00  0.30873    
   100.00  0.30441    
   101.00  0.30036    
   102.00  0.29658    
   103.00  0.29303    
   104.00  0.28972    
   105.00  0.28665    
   106.00  0.28380    
   107.00  0.28116    
   108.00  0.27874    
   109.00  0.27652    
   110.00  0.27449    
   111.00  0.27265    
   112.00  0.27101    
   113.00  0.26955    
   114.00  0.26826    
   115.00  0.26715    
   116.00  0.26621    
   117.00  0.26544    
   118.00  0.26483    
   119.00  0.26439    
   120.00  0.26411    
   121.00  0.26399    
   122.00  0.26404    
   123.00  0.26425    
   124.00  0.26463    
   125.00  0.26518    
   126.00  0.26591    
   127.00  0.26683    
   128.00  0.26795    
   129.00  0.26928    
   130.00  0.27083    
   131.00  0.27263    
   132.00  0.27469    
   133.00  0.27704    
   134.00  0.27972    
   135.00  0.28274    
   136.00  0.28615    
   137.00  0.28997    
   138.00  0.29426    
   139.00  0.29906    
   140.00  0.30440    
   141.00  0.31030    
   142.00  0.31679    
   143.00  0.32388    
   144.00  0.33156    
   145.00  0.33980    
   146.00  0.34855    
   147.00  0.35770    
   148.00  0.36709    
   149.00  0.37659    
   150.00  0.38599    
   151.00  0.39501    
   152.00  0.40341    
   153.00  0.41097    
   154.00  0.41742    
   155.00  0.42253    
   156.00  0.42630    
   157.00  0.42883    
   158.00  0.43024    
   159.00  0.43089    
   160.00  0.43146    
   161.00  0.43249    
   162.00  0.43460    
   163.00  0.43875    
   164.00  0.44566    
   165.00  0.45530    
   166.00  0.46747    
   167.00  0.48172    
   168.00  0.49671    
   169.00  0.51134    
   170.00  0.52611    
   171.00  0.54108    
   172.00  0.55346    
   173.00  0.55927    
   174.00  0.55513    
   175.00  0.53827    
   176.00  0.51288    
   177.00  0.49763    
   178.00  0.51185    
   179.00  0.54654    
   180.00  0.56525    
 |--------|------------|
0.498000     micron = Wavelength
0.281394     = Extinction efficiency (Q)
0.261072     = Scattering efficiency (Qs)
0.203214E-01 = Absorption efficiency (Qa)
 23.9619     = Lidar ratio
0.116534E-01 micron^2 = <b> = Average surface area per particle
0.327919E-02 microns^2 = Extinction cross section (C)
0.304237E-02 microns^2 = Scattering cross section (Cs)
0.236813E-03 microns^2 = Absorption cross section (Ca)
 |----------------------------------------------------|
 | COMMENTAIRES:                                      |
 |----------------------------------------------------|
 |   -Cross section / <b> should = efficiency         |
 |    is independant of the normalisation of dN/dx    |
 |   -The integral of the phase fct / 4 pi over all   |
 |    directions (solid angle) = 1.                   |
 |   -The volume coefficient (k) is equal to C * N    |
 |      = cross section * Number density              |
 |      typical units: [um^2]*[particles/cm^3] =      |
 |      [10^-3 km-1]                                  |
 |      N = M/(d*4/3*pi*r^3) where d is the density   |
 |      of particle, M is the mass per unit volume    |
 |      and 4/3*pi*r^3 is the average volume  of a    |
 |      particle.                                     |
 |      typical units:  M -> [ug/m^3], d -> [g/cm^3]  |
 |                      r -> [um]                     |
 |      Lidar ratio= 4 pi Qe / phase_fct(180)*Qs      |
 |----------------------------------------------------|
