 |--------|------------|
 | ANGLE  |  PHASE FCT |
 |--------|------------|
     0.00   38.302    
     1.00   37.957    
     2.00   36.951    
     3.00   35.368    
     4.00   33.331    
     5.00   30.978    
     6.00   28.445    
     7.00   25.855    
     8.00   23.304    
     9.00   20.866    
    10.00   18.590    
    11.00   16.506    
    12.00   14.626    
    13.00   12.951    
    14.00   11.473    
    15.00   10.179    
    16.00   9.0516    
    17.00   8.0741    
    18.00   7.2288    
    19.00   6.4989    
    20.00   5.8684    
    21.00   5.3234    
    22.00   4.8511    
    23.00   4.4407    
    24.00   4.0826    
    25.00   3.7687    
    26.00   3.4921    
    27.00   3.2470    
    28.00   3.0286    
    29.00   2.8327    
    30.00   2.6560    
    31.00   2.4958    
    32.00   2.3497    
    33.00   2.2158    
    34.00   2.0926    
    35.00   1.9787    
    36.00   1.8731    
    37.00   1.7748    
    38.00   1.6831    
    39.00   1.5974    
    40.00   1.5170    
    41.00   1.4416    
    42.00   1.3707    
    43.00   1.3039    
    44.00   1.2410    
    45.00   1.1817    
    46.00   1.1257    
    47.00   1.0728    
    48.00   1.0229    
    49.00  0.97570    
    50.00  0.93108    
    51.00  0.88889    
    52.00  0.84897    
    53.00  0.81122    
    54.00  0.77548    
    55.00  0.74165    
    56.00  0.70963    
    57.00  0.67931    
    58.00  0.65060    
    59.00  0.62342    
    60.00  0.59766    
    61.00  0.57326    
    62.00  0.55014    
    63.00  0.52823    
    64.00  0.50747    
    65.00  0.48778    
    66.00  0.46913    
    67.00  0.45144    
    68.00  0.43467    
    69.00  0.41876    
    70.00  0.40368    
    71.00  0.38938    
    72.00  0.37581    
    73.00  0.36294    
    74.00  0.35073    
    75.00  0.33915    
    76.00  0.32816    
    77.00  0.31774    
    78.00  0.30786    
    79.00  0.29849    
    80.00  0.28960    
    81.00  0.28117    
    82.00  0.27318    
    83.00  0.26561    
    84.00  0.25844    
    85.00  0.25165    
    86.00  0.24522    
    87.00  0.23914    
    88.00  0.23338    
    89.00  0.22795    
    90.00  0.22282    
    91.00  0.21797    
    92.00  0.21341    
    93.00  0.20911    
    94.00  0.20507    
    95.00  0.20128    
    96.00  0.19772    
    97.00  0.19440    
    98.00  0.19129    
    99.00  0.18840    
   100.00  0.18572    
   101.00  0.18324    
   102.00  0.18095    
   103.00  0.17885    
   104.00  0.17693    
   105.00  0.17520    
   106.00  0.17364    
   107.00  0.17225    
   108.00  0.17104    
   109.00  0.16999    
   110.00  0.16910    
   111.00  0.16837    
   112.00  0.16781    
   113.00  0.16741    
   114.00  0.16716    
   115.00  0.16708    
   116.00  0.16715    
   117.00  0.16739    
   118.00  0.16778    
   119.00  0.16835    
   120.00  0.16908    
   121.00  0.16998    
   122.00  0.17106    
   123.00  0.17232    
   124.00  0.17376    
   125.00  0.17540    
   126.00  0.17725    
   127.00  0.17930    
   128.00  0.18157    
   129.00  0.18408    
   130.00  0.18682    
   131.00  0.18983    
   132.00  0.19312    
   133.00  0.19669    
   134.00  0.20059    
   135.00  0.20481    
   136.00  0.20939    
   137.00  0.21436    
   138.00  0.21975    
   139.00  0.22558    
   140.00  0.23189    
   141.00  0.23872    
   142.00  0.24611    
   143.00  0.25410    
   144.00  0.26273    
   145.00  0.27204    
   146.00  0.28208    
   147.00  0.29287    
   148.00  0.30444    
   149.00  0.31680    
   150.00  0.32993    
   151.00  0.34381    
   152.00  0.35834    
   153.00  0.37339    
   154.00  0.38877    
   155.00  0.40418    
   156.00  0.41928    
   157.00  0.43359    
   158.00  0.44656    
   159.00  0.45755    
   160.00  0.46587    
   161.00  0.47079    
   162.00  0.47169    
   163.00  0.46804    
   164.00  0.45959    
   165.00  0.44643    
   166.00  0.42912    
   167.00  0.40870    
   168.00  0.38670    
   169.00  0.36511    
   170.00  0.34611    
   171.00  0.33190    
   172.00  0.32431    
   173.00  0.32451    
   174.00  0.33264    
   175.00  0.34770    
   176.00  0.36744    
   177.00  0.38861    
   178.00  0.40748    
   179.00  0.42051    
   180.00  0.42516    
 |--------|------------|
0.700000     micron = Wavelength
0.118912     = Extinction efficiency (Q)
0.110282     = Scattering efficiency (Qs)
0.862989E-02 = Absorption efficiency (Qa)
 31.8696     = Lidar ratio
0.446407E-02 micron^2 = <b> = Average surface area per particle
0.530831E-03 microns^2 = Extinction cross section (C)
0.492307E-03 microns^2 = Scattering cross section (Cs)
0.385244E-04 microns^2 = Absorption cross section (Ca)
 |----------------------------------------------------|
 | COMMENTAIRES:                                      |
 |----------------------------------------------------|
 |   -Cross section / <b> should = efficiency         |
 |    is independant of the normalisation of dN/dx    |
 |   -The integral of the phase fct / 4 pi over all   |
 |    directions (solid angle) = 1.                   |
 |   -The volume coefficient (k) is equal to C * N    |
 |      = cross section * Number density              |
 |      typical units: [um^2]*[particles/cm^3] =      |
 |      [10^-3 km-1]                                  |
 |      N = M/(d*4/3*pi*r^3) where d is the density   |
 |      of particle, M is the mass per unit volume    |
 |      and 4/3*pi*r^3 is the average volume  of a    |
 |      particle.                                     |
 |      typical units:  M -> [ug/m^3], d -> [g/cm^3]  |
 |                      r -> [um]                     |
 |      Lidar ratio= 4 pi Qe / phase_fct(180)*Qs      |
 |----------------------------------------------------|
