 |--------|------------|
 | ANGLE  |  PHASE FCT |
 |--------|------------|
     0.00   50.997    
     1.00   50.156    
     2.00   47.756    
     3.00   44.134    
     4.00   39.731    
     5.00   34.988    
     6.00   30.267    
     7.00   25.826    
     8.00   21.822    
     9.00   18.324    
    10.00   15.344    
    11.00   12.854    
    12.00   10.803    
    13.00   9.1334    
    14.00   7.7849    
    15.00   6.7019    
    16.00   5.8345    
    17.00   5.1404    
    18.00   4.5841    
    19.00   4.1364    
    20.00   3.7739    
    21.00   3.4776    
    22.00   3.2329    
    23.00   3.0281    
    24.00   2.8541    
    25.00   2.7040    
    26.00   2.5724    
    27.00   2.4551    
    28.00   2.3492    
    29.00   2.2523    
    30.00   2.1626    
    31.00   2.0788    
    32.00   2.0000    
    33.00   1.9254    
    34.00   1.8544    
    35.00   1.7867    
    36.00   1.7219    
    37.00   1.6598    
    38.00   1.6002    
    39.00   1.5430    
    40.00   1.4879    
    41.00   1.4350    
    42.00   1.3841    
    43.00   1.3351    
    44.00   1.2881    
    45.00   1.2428    
    46.00   1.1993    
    47.00   1.1575    
    48.00   1.1173    
    49.00   1.0786    
    50.00   1.0415    
    51.00   1.0059    
    52.00  0.97168    
    53.00  0.93884    
    54.00  0.90731    
    55.00  0.87705    
    56.00  0.84801    
    57.00  0.82016    
    58.00  0.79344    
    59.00  0.76780    
    60.00  0.74322    
    61.00  0.71966    
    62.00  0.69706    
    63.00  0.67540    
    64.00  0.65464    
    65.00  0.63474    
    66.00  0.61569    
    67.00  0.59743    
    68.00  0.57994    
    69.00  0.56320    
    70.00  0.54717    
    71.00  0.53184    
    72.00  0.51716    
    73.00  0.50312    
    74.00  0.48970    
    75.00  0.47687    
    76.00  0.46461    
    77.00  0.45290    
    78.00  0.44172    
    79.00  0.43106    
    80.00  0.42089    
    81.00  0.41120    
    82.00  0.40196    
    83.00  0.39318    
    84.00  0.38482    
    85.00  0.37687    
    86.00  0.36934    
    87.00  0.36219    
    88.00  0.35541    
    89.00  0.34901    
    90.00  0.34295    
    91.00  0.33724    
    92.00  0.33186    
    93.00  0.32680    
    94.00  0.32206    
    95.00  0.31762    
    96.00  0.31347    
    97.00  0.30961    
    98.00  0.30603    
    99.00  0.30272    
   100.00  0.29967    
   101.00  0.29688    
   102.00  0.29434    
   103.00  0.29204    
   104.00  0.28998    
   105.00  0.28815    
   106.00  0.28655    
   107.00  0.28516    
   108.00  0.28400    
   109.00  0.28304    
   110.00  0.28229    
   111.00  0.28174    
   112.00  0.28139    
   113.00  0.28124    
   114.00  0.28128    
   115.00  0.28151    
   116.00  0.28194    
   117.00  0.28255    
   118.00  0.28334    
   119.00  0.28433    
   120.00  0.28550    
   121.00  0.28687    
   122.00  0.28842    
   123.00  0.29017    
   124.00  0.29211    
   125.00  0.29426    
   126.00  0.29661    
   127.00  0.29918    
   128.00  0.30198    
   129.00  0.30500    
   130.00  0.30827    
   131.00  0.31179    
   132.00  0.31559    
   133.00  0.31966    
   134.00  0.32405    
   135.00  0.32876    
   136.00  0.33381    
   137.00  0.33925    
   138.00  0.34508    
   139.00  0.35136    
   140.00  0.35810    
   141.00  0.36537    
   142.00  0.37320    
   143.00  0.38164    
   144.00  0.39076    
   145.00  0.40062    
   146.00  0.41131    
   147.00  0.42288    
   148.00  0.43546    
   149.00  0.44911    
   150.00  0.46395    
   151.00  0.48005    
   152.00  0.49748    
   153.00  0.51627    
   154.00  0.53641    
   155.00  0.55778    
   156.00  0.58016    
   157.00  0.60318    
   158.00  0.62631    
   159.00  0.64876    
   160.00  0.66958    
   161.00  0.68761    
   162.00  0.70153    
   163.00  0.71003    
   164.00  0.71194    
   165.00  0.70646    
   166.00  0.69336    
   167.00  0.67319    
   168.00  0.64737    
   169.00  0.61822    
   170.00  0.58873    
   171.00  0.56236    
   172.00  0.54264    
   173.00  0.53272    
   174.00  0.53471    
   175.00  0.54901    
   176.00  0.57377    
   177.00  0.60449    
   178.00  0.63456    
   179.00  0.65660    
   180.00  0.66470    
 |--------|------------|
0.440000     micron = Wavelength
0.124325     = Extinction efficiency (Q)
0.113456     = Scattering efficiency (Qs)
0.108690E-01 = Absorption efficiency (Qa)
 20.7165     = Lidar ratio
0.336362E-02 micron^2 = <b> = Average surface area per particle
0.418183E-03 microns^2 = Extinction cross section (C)
0.381624E-03 microns^2 = Scattering cross section (Cs)
0.365592E-04 microns^2 = Absorption cross section (Ca)
 |----------------------------------------------------|
 | COMMENTAIRES:                                      |
 |----------------------------------------------------|
 |   -Cross section / <b> should = efficiency         |
 |    is independant of the normalisation of dN/dx    |
 |   -The integral of the phase fct / 4 pi over all   |
 |    directions (solid angle) = 1.                   |
 |   -The volume coefficient (k) is equal to C * N    |
 |      = cross section * Number density              |
 |      typical units: [um^2]*[particles/cm^3] =      |
 |      [10^-3 km-1]                                  |
 |      N = M/(d*4/3*pi*r^3) where d is the density   |
 |      of particle, M is the mass per unit volume    |
 |      and 4/3*pi*r^3 is the average volume  of a    |
 |      particle.                                     |
 |      typical units:  M -> [ug/m^3], d -> [g/cm^3]  |
 |                      r -> [um]                     |
 |      Lidar ratio= 4 pi Qe / phase_fct(180)*Qs      |
 |----------------------------------------------------|
