 |--------|------------|
 | ANGLE  |  PHASE FCT |
 |--------|------------|
     0.00   36.686    
     1.00   36.360    
     2.00   35.410    
     3.00   33.915    
     4.00   31.987    
     5.00   29.758    
     6.00   27.353    
     7.00   24.889    
     8.00   22.458    
     9.00   20.130    
    10.00   17.953    
    11.00   15.956    
    12.00   14.152    
    13.00   12.542    
    14.00   11.119    
    15.00   9.8715    
    16.00   8.7842    
    17.00   7.8406    
    18.00   7.0241    
    19.00   6.3188    
    20.00   5.7095    
    21.00   5.1830    
    22.00   4.7271    
    23.00   4.3311    
    24.00   3.9859    
    25.00   3.6836    
    26.00   3.4176    
    27.00   3.1821    
    28.00   2.9724    
    29.00   2.7845    
    30.00   2.6152    
    31.00   2.4618    
    32.00   2.3219    
    33.00   2.1938    
    34.00   2.0758    
    35.00   1.9668    
    36.00   1.8655    
    37.00   1.7712    
    38.00   1.6832    
    39.00   1.6007    
    40.00   1.5233    
    41.00   1.4506    
    42.00   1.3821    
    43.00   1.3174    
    44.00   1.2564    
    45.00   1.1988    
    46.00   1.1443    
    47.00   1.0928    
    48.00   1.0440    
    49.00  0.99780    
    50.00  0.95403    
    51.00  0.91255    
    52.00  0.87324    
    53.00  0.83596    
    54.00  0.80062    
    55.00  0.76710    
    56.00  0.73530    
    57.00  0.70514    
    58.00  0.67651    
    59.00  0.64936    
    60.00  0.62358    
    61.00  0.59912    
    62.00  0.57590    
    63.00  0.55385    
    64.00  0.53292    
    65.00  0.51304    
    66.00  0.49417    
    67.00  0.47624    
    68.00  0.45922    
    69.00  0.44305    
    70.00  0.42769    
    71.00  0.41310    
    72.00  0.39925    
    73.00  0.38608    
    74.00  0.37358    
    75.00  0.36170    
    76.00  0.35042    
    77.00  0.33971    
    78.00  0.32954    
    79.00  0.31988    
    80.00  0.31071    
    81.00  0.30201    
    82.00  0.29376    
    83.00  0.28593    
    84.00  0.27851    
    85.00  0.27148    
    86.00  0.26482    
    87.00  0.25851    
    88.00  0.25255    
    89.00  0.24691    
    90.00  0.24158    
    91.00  0.23656    
    92.00  0.23183    
    93.00  0.22737    
    94.00  0.22318    
    95.00  0.21925    
    96.00  0.21557    
    97.00  0.21213    
    98.00  0.20892    
    99.00  0.20593    
   100.00  0.20316    
   101.00  0.20060    
   102.00  0.19825    
   103.00  0.19610    
   104.00  0.19413    
   105.00  0.19236    
   106.00  0.19078    
   107.00  0.18937    
   108.00  0.18815    
   109.00  0.18709    
   110.00  0.18621    
   111.00  0.18550    
   112.00  0.18495    
   113.00  0.18458    
   114.00  0.18437    
   115.00  0.18432    
   116.00  0.18444    
   117.00  0.18473    
   118.00  0.18518    
   119.00  0.18581    
   120.00  0.18661    
   121.00  0.18758    
   122.00  0.18873    
   123.00  0.19007    
   124.00  0.19160    
   125.00  0.19333    
   126.00  0.19527    
   127.00  0.19742    
   128.00  0.19980    
   129.00  0.20241    
   130.00  0.20528    
   131.00  0.20841    
   132.00  0.21183    
   133.00  0.21555    
   134.00  0.21959    
   135.00  0.22399    
   136.00  0.22876    
   137.00  0.23393    
   138.00  0.23955    
   139.00  0.24564    
   140.00  0.25224    
   141.00  0.25939    
   142.00  0.26715    
   143.00  0.27555    
   144.00  0.28464    
   145.00  0.29446    
   146.00  0.30506    
   147.00  0.31648    
   148.00  0.32873    
   149.00  0.34182    
   150.00  0.35573    
   151.00  0.37041    
   152.00  0.38576    
   153.00  0.40160    
   154.00  0.41773    
   155.00  0.43381    
   156.00  0.44946    
   157.00  0.46418    
   158.00  0.47738    
   159.00  0.48839    
   160.00  0.49655    
   161.00  0.50117    
   162.00  0.50166    
   163.00  0.49763    
   164.00  0.48893    
   165.00  0.47584    
   166.00  0.45904    
   167.00  0.43973    
   168.00  0.41954    
   169.00  0.40046    
   170.00  0.38462    
   171.00  0.37408    
   172.00  0.37044    
   173.00  0.37463    
   174.00  0.38655    
   175.00  0.40497    
   176.00  0.42748    
   177.00  0.45077    
   178.00  0.47110    
   179.00  0.48498    
   180.00  0.48990    
 |--------|------------|
0.590000     micron = Wavelength
0.112444     = Extinction efficiency (Q)
0.103864     = Scattering efficiency (Qs)
0.857946E-02 = Absorption efficiency (Qa)
 27.7695     = Lidar ratio
0.336363E-02 micron^2 = <b> = Average surface area per particle
0.378219E-03 microns^2 = Extinction cross section (C)
0.349360E-03 microns^2 = Scattering cross section (Cs)
0.288581E-04 microns^2 = Absorption cross section (Ca)
 |----------------------------------------------------|
 | COMMENTAIRES:                                      |
 |----------------------------------------------------|
 |   -Cross section / <b> should = efficiency         |
 |    is independant of the normalisation of dN/dx    |
 |   -The integral of the phase fct / 4 pi over all   |
 |    directions (solid angle) = 1.                   |
 |   -The volume coefficient (k) is equal to C * N    |
 |      = cross section * Number density              |
 |      typical units: [um^2]*[particles/cm^3] =      |
 |      [10^-3 km-1]                                  |
 |      N = M/(d*4/3*pi*r^3) where d is the density   |
 |      of particle, M is the mass per unit volume    |
 |      and 4/3*pi*r^3 is the average volume  of a    |
 |      particle.                                     |
 |      typical units:  M -> [ug/m^3], d -> [g/cm^3]  |
 |                      r -> [um]                     |
 |      Lidar ratio= 4 pi Qe / phase_fct(180)*Qs      |
 |----------------------------------------------------|
