 |--------|------------|
 | ANGLE  |  PHASE FCT |
 |--------|------------|
     0.00   67.321    
     1.00   64.495    
     2.00   56.950    
     3.00   46.921    
     4.00   36.725    
     5.00   27.857    
     6.00   20.847    
     7.00   15.617    
     8.00   11.860    
     9.00   9.2308    
    10.00   7.4170    
    11.00   6.1700    
    12.00   5.3091    
    13.00   4.7079    
    14.00   4.2790    
    15.00   3.9638    
    16.00   3.7243    
    17.00   3.5357    
    18.00   3.3815    
    19.00   3.2511    
    20.00   3.1372    
    21.00   3.0350    
    22.00   2.9416    
    23.00   2.8548    
    24.00   2.7734    
    25.00   2.6960    
    26.00   2.6220    
    27.00   2.5511    
    28.00   2.4828    
    29.00   2.4168    
    30.00   2.3527    
    31.00   2.2906    
    32.00   2.2303    
    33.00   2.1715    
    34.00   2.1142    
    35.00   2.0583    
    36.00   2.0038    
    37.00   1.9505    
    38.00   1.8985    
    39.00   1.8476    
    40.00   1.7979    
    41.00   1.7493    
    42.00   1.7017    
    43.00   1.6552    
    44.00   1.6098    
    45.00   1.5654    
    46.00   1.5220    
    47.00   1.4796    
    48.00   1.4381    
    49.00   1.3977    
    50.00   1.3582    
    51.00   1.3197    
    52.00   1.2821    
    53.00   1.2455    
    54.00   1.2098    
    55.00   1.1750    
    56.00   1.1411    
    57.00   1.1082    
    58.00   1.0761    
    59.00   1.0449    
    60.00   1.0146    
    61.00  0.98516    
    62.00  0.95658    
    63.00  0.92885    
    64.00  0.90196    
    65.00  0.87590    
    66.00  0.85067    
    67.00  0.82622    
    68.00  0.80259    
    69.00  0.77974    
    70.00  0.75766    
    71.00  0.73634    
    72.00  0.71577    
    73.00  0.69593    
    74.00  0.67682    
    75.00  0.65840    
    76.00  0.64069    
    77.00  0.62365    
    78.00  0.60728    
    79.00  0.59156    
    80.00  0.57647    
    81.00  0.56200    
    82.00  0.54814    
    83.00  0.53487    
    84.00  0.52217    
    85.00  0.51003    
    86.00  0.49844    
    87.00  0.48738    
    88.00  0.47683    
    89.00  0.46679    
    90.00  0.45723    
    91.00  0.44814    
    92.00  0.43952    
    93.00  0.43134    
    94.00  0.42359    
    95.00  0.41626    
    96.00  0.40934    
    97.00  0.40282    
    98.00  0.39667    
    99.00  0.39090    
   100.00  0.38549    
   101.00  0.38042    
   102.00  0.37570    
   103.00  0.37130    
   104.00  0.36722    
   105.00  0.36344    
   106.00  0.35996    
   107.00  0.35677    
   108.00  0.35386    
   109.00  0.35122    
   110.00  0.34883    
   111.00  0.34670    
   112.00  0.34482    
   113.00  0.34316    
   114.00  0.34174    
   115.00  0.34054    
   116.00  0.33955    
   117.00  0.33877    
   118.00  0.33819    
   119.00  0.33780    
   120.00  0.33760    
   121.00  0.33760    
   122.00  0.33777    
   123.00  0.33812    
   124.00  0.33865    
   125.00  0.33935    
   126.00  0.34022    
   127.00  0.34126    
   128.00  0.34249    
   129.00  0.34388    
   130.00  0.34546    
   131.00  0.34723    
   132.00  0.34918    
   133.00  0.35134    
   134.00  0.35371    
   135.00  0.35629    
   136.00  0.35912    
   137.00  0.36220    
   138.00  0.36554    
   139.00  0.36917    
   140.00  0.37310    
   141.00  0.37735    
   142.00  0.38194    
   143.00  0.38689    
   144.00  0.39219    
   145.00  0.39787    
   146.00  0.40392    
   147.00  0.41033    
   148.00  0.41708    
   149.00  0.42415    
   150.00  0.43151    
   151.00  0.43908    
   152.00  0.44683    
   153.00  0.45471    
   154.00  0.46264    
   155.00  0.47059    
   156.00  0.47854    
   157.00  0.48651    
   158.00  0.49454    
   159.00  0.50272    
   160.00  0.51114    
   161.00  0.51985    
   162.00  0.52883    
   163.00  0.53794    
   164.00  0.54681    
   165.00  0.55485    
   166.00  0.56134    
   167.00  0.56563    
   168.00  0.56726    
   169.00  0.56602    
   170.00  0.56196    
   171.00  0.55503    
   172.00  0.54504    
   173.00  0.53236    
   174.00  0.51867    
   175.00  0.50720    
   176.00  0.50254    
   177.00  0.50888    
   178.00  0.52564    
   179.00  0.54430    
   180.00  0.55252    
 |--------|------------|
0.370000     micron = Wavelength
0.245047     = Extinction efficiency (Q)
0.229304     = Scattering efficiency (Qs)
0.157432E-01 = Absorption efficiency (Qa)
 24.3054     = Lidar ratio
0.627980E-02 micron^2 = <b> = Average surface area per particle
0.153884E-02 microns^2 = Extinction cross section (C)
0.143998E-02 microns^2 = Scattering cross section (Cs)
0.988639E-04 microns^2 = Absorption cross section (Ca)
 |----------------------------------------------------|
 | COMMENTAIRES:                                      |
 |----------------------------------------------------|
 |   -Cross section / <b> should = efficiency         |
 |    is independant of the normalisation of dN/dx    |
 |   -The integral of the phase fct / 4 pi over all   |
 |    directions (solid angle) = 1.                   |
 |   -The volume coefficient (k) is equal to C * N    |
 |      = cross section * Number density              |
 |      typical units: [um^2]*[particles/cm^3] =      |
 |      [10^-3 km-1]                                  |
 |      N = M/(d*4/3*pi*r^3) where d is the density   |
 |      of particle, M is the mass per unit volume    |
 |      and 4/3*pi*r^3 is the average volume  of a    |
 |      particle.                                     |
 |      typical units:  M -> [ug/m^3], d -> [g/cm^3]  |
 |                      r -> [um]                     |
 |      Lidar ratio= 4 pi Qe / phase_fct(180)*Qs      |
 |----------------------------------------------------|
