 |--------|------------|
 | ANGLE  |  PHASE FCT |
 |--------|------------|
     0.00   134.47    
     1.00   129.29    
     2.00   115.32    
     3.00   96.386    
     4.00   76.571    
     5.00   58.718    
     6.00   44.063    
     7.00   32.724    
     8.00   24.294    
     9.00   18.201    
    10.00   13.877    
    11.00   10.833    
    12.00   8.6948    
    13.00   7.1865    
    14.00   6.1106    
    15.00   5.3301    
    16.00   4.7515    
    17.00   4.3110    
    18.00   3.9648    
    19.00   3.6842    
    20.00   3.4502    
    21.00   3.2495    
    22.00   3.0730    
    23.00   2.9148    
    24.00   2.7709    
    25.00   2.6388    
    26.00   2.5162    
    27.00   2.4017    
    28.00   2.2942    
    29.00   2.1932    
    30.00   2.0978    
    31.00   2.0075    
    32.00   1.9218    
    33.00   1.8405    
    34.00   1.7632    
    35.00   1.6897    
    36.00   1.6196    
    37.00   1.5528    
    38.00   1.4891    
    39.00   1.4283    
    40.00   1.3703    
    41.00   1.3148    
    42.00   1.2619    
    43.00   1.2114    
    44.00   1.1630    
    45.00   1.1168    
    46.00   1.0726    
    47.00   1.0304    
    48.00  0.99006    
    49.00  0.95145    
    50.00  0.91457    
    51.00  0.87930    
    52.00  0.84555    
    53.00  0.81330    
    54.00  0.78248    
    55.00  0.75301    
    56.00  0.72483    
    57.00  0.69790    
    58.00  0.67217    
    59.00  0.64758    
    60.00  0.62407    
    61.00  0.60162    
    62.00  0.58018    
    63.00  0.55969    
    64.00  0.54012    
    65.00  0.52145    
    66.00  0.50363    
    67.00  0.48662    
    68.00  0.47038    
    69.00  0.45490    
    70.00  0.44015    
    71.00  0.42608    
    72.00  0.41268    
    73.00  0.39992    
    74.00  0.38777    
    75.00  0.37620    
    76.00  0.36520    
    77.00  0.35475    
    78.00  0.34481    
    79.00  0.33538    
    80.00  0.32642    
    81.00  0.31792    
    82.00  0.30986    
    83.00  0.30223    
    84.00  0.29499    
    85.00  0.28814    
    86.00  0.28166    
    87.00  0.27554    
    88.00  0.26975    
    89.00  0.26428    
    90.00  0.25912    
    91.00  0.25425    
    92.00  0.24966    
    93.00  0.24534    
    94.00  0.24128    
    95.00  0.23746    
    96.00  0.23387    
    97.00  0.23051    
    98.00  0.22736    
    99.00  0.22442    
   100.00  0.22168    
   101.00  0.21913    
   102.00  0.21677    
   103.00  0.21458    
   104.00  0.21257    
   105.00  0.21072    
   106.00  0.20905    
   107.00  0.20753    
   108.00  0.20618    
   109.00  0.20498    
   110.00  0.20393    
   111.00  0.20304    
   112.00  0.20231    
   113.00  0.20172    
   114.00  0.20130    
   115.00  0.20102    
   116.00  0.20091    
   117.00  0.20096    
   118.00  0.20117    
   119.00  0.20156    
   120.00  0.20212    
   121.00  0.20286    
   122.00  0.20380    
   123.00  0.20494    
   124.00  0.20629    
   125.00  0.20787    
   126.00  0.20970    
   127.00  0.21179    
   128.00  0.21416    
   129.00  0.21682    
   130.00  0.21982    
   131.00  0.22317    
   132.00  0.22690    
   133.00  0.23104    
   134.00  0.23563    
   135.00  0.24069    
   136.00  0.24627    
   137.00  0.25240    
   138.00  0.25911    
   139.00  0.26643    
   140.00  0.27438    
   141.00  0.28298    
   142.00  0.29223    
   143.00  0.30212    
   144.00  0.31263    
   145.00  0.32372    
   146.00  0.33532    
   147.00  0.34733    
   148.00  0.35966    
   149.00  0.37215    
   150.00  0.38467    
   151.00  0.39705    
   152.00  0.40913    
   153.00  0.42079    
   154.00  0.43195    
   155.00  0.44259    
   156.00  0.45283    
   157.00  0.46288    
   158.00  0.47311    
   159.00  0.48396    
   160.00  0.49596    
   161.00  0.50959    
   162.00  0.52511    
   163.00  0.54251    
   164.00  0.56117    
   165.00  0.57970    
   166.00  0.59602    
   167.00  0.60753    
   168.00  0.61158    
   169.00  0.60630    
   170.00  0.59136    
   171.00  0.56814    
   172.00  0.53947    
   173.00  0.50993    
   174.00  0.48588    
   175.00  0.47495    
   176.00  0.48462    
   177.00  0.51842    
   178.00  0.56943    
   179.00  0.61723    
   180.00  0.63696    
 |--------|------------|
0.720000     micron = Wavelength
0.193055     = Extinction efficiency (Q)
0.177654     = Scattering efficiency (Qs)
0.154012E-01 = Absorption efficiency (Qa)
 21.4389     = Lidar ratio
0.116613E-01 micron^2 = <b> = Average surface area per particle
0.225128E-02 microns^2 = Extinction cross section (C)
0.207168E-02 microns^2 = Scattering cross section (Cs)
0.179599E-03 microns^2 = Absorption cross section (Ca)
 |----------------------------------------------------|
 | COMMENTAIRES:                                      |
 |----------------------------------------------------|
 |   -Cross section / <b> should = efficiency         |
 |    is independant of the normalisation of dN/dx    |
 |   -The integral of the phase fct / 4 pi over all   |
 |    directions (solid angle) = 1.                   |
 |   -The volume coefficient (k) is equal to C * N    |
 |      = cross section * Number density              |
 |      typical units: [um^2]*[particles/cm^3] =      |
 |      [10^-3 km-1]                                  |
 |      N = M/(d*4/3*pi*r^3) where d is the density   |
 |      of particle, M is the mass per unit volume    |
 |      and 4/3*pi*r^3 is the average volume  of a    |
 |      particle.                                     |
 |      typical units:  M -> [ug/m^3], d -> [g/cm^3]  |
 |                      r -> [um]                     |
 |      Lidar ratio= 4 pi Qe / phase_fct(180)*Qs      |
 |----------------------------------------------------|
