 |--------|------------|
 | ANGLE  |  PHASE FCT |
 |--------|------------|
     0.00   114.72    
     1.00   110.49    
     2.00   99.036    
     3.00   83.401    
     4.00   66.881    
     5.00   51.819    
     6.00   39.300    
     7.00   29.492    
     8.00   22.114    
     9.00   16.721    
    10.00   12.851    
    11.00   10.102    
    12.00   8.1554    
    13.00   6.7729    
    14.00   5.7821    
    15.00   5.0615    
    16.00   4.5270    
    17.00   4.1204    
    18.00   3.8020    
    19.00   3.5450    
    20.00   3.3315    
    21.00   3.1491    
    22.00   2.9892    
    23.00   2.8460    
    24.00   2.7160    
    25.00   2.5965    
    26.00   2.4855    
    27.00   2.3816    
    28.00   2.2839    
    29.00   2.1917    
    30.00   2.1044    
    31.00   2.0215    
    32.00   1.9426    
    33.00   1.8675    
    34.00   1.7958    
    35.00   1.7274    
    36.00   1.6619    
    37.00   1.5993    
    38.00   1.5394    
    39.00   1.4820    
    40.00   1.4269    
    41.00   1.3742    
    42.00   1.3237    
    43.00   1.2752    
    44.00   1.2287    
    45.00   1.1840    
    46.00   1.1413    
    47.00   1.1002    
    48.00   1.0607    
    49.00   1.0229    
    50.00  0.98657    
    51.00  0.95172    
    52.00  0.91825    
    53.00  0.88615    
    54.00  0.85536    
    55.00  0.82579    
    56.00  0.79742    
    57.00  0.77021    
    58.00  0.74412    
    59.00  0.71908    
    60.00  0.69506    
    61.00  0.67204    
    62.00  0.64998    
    63.00  0.62883    
    64.00  0.60856    
    65.00  0.58914    
    66.00  0.57054    
    67.00  0.55274    
    68.00  0.53569    
    69.00  0.51939    
    70.00  0.50379    
    71.00  0.48888    
    72.00  0.47463    
    73.00  0.46101    
    74.00  0.44801    
    75.00  0.43561    
    76.00  0.42377    
    77.00  0.41249    
    78.00  0.40175    
    79.00  0.39151    
    80.00  0.38177    
    81.00  0.37250    
    82.00  0.36370    
    83.00  0.35533    
    84.00  0.34739    
    85.00  0.33986    
    86.00  0.33272    
    87.00  0.32596    
    88.00  0.31956    
    89.00  0.31351    
    90.00  0.30779    
    91.00  0.30240    
    92.00  0.29731    
    93.00  0.29252    
    94.00  0.28802    
    95.00  0.28379    
    96.00  0.27982    
    97.00  0.27611    
    98.00  0.27264    
    99.00  0.26941    
   100.00  0.26641    
   101.00  0.26363    
   102.00  0.26106    
   103.00  0.25870    
   104.00  0.25654    
   105.00  0.25458    
   106.00  0.25280    
   107.00  0.25122    
   108.00  0.24982    
   109.00  0.24860    
   110.00  0.24755    
   111.00  0.24668    
   112.00  0.24598    
   113.00  0.24545    
   114.00  0.24509    
   115.00  0.24490    
   116.00  0.24488    
   117.00  0.24503    
   118.00  0.24535    
   119.00  0.24585    
   120.00  0.24653    
   121.00  0.24739    
   122.00  0.24845    
   123.00  0.24970    
   124.00  0.25116    
   125.00  0.25283    
   126.00  0.25473    
   127.00  0.25688    
   128.00  0.25928    
   129.00  0.26196    
   130.00  0.26493    
   131.00  0.26822    
   132.00  0.27185    
   133.00  0.27584    
   134.00  0.28023    
   135.00  0.28504    
   136.00  0.29031    
   137.00  0.29606    
   138.00  0.30231    
   139.00  0.30911    
   140.00  0.31647    
   141.00  0.32440    
   142.00  0.33292    
   143.00  0.34203    
   144.00  0.35170    
   145.00  0.36192    
   146.00  0.37263    
   147.00  0.38377    
   148.00  0.39524    
   149.00  0.40696    
   150.00  0.41880    
   151.00  0.43065    
   152.00  0.44237    
   153.00  0.45388    
   154.00  0.46511    
   155.00  0.47606    
   156.00  0.48682    
   157.00  0.49758    
   158.00  0.50861    
   159.00  0.52025    
   160.00  0.53288    
   161.00  0.54678    
   162.00  0.56208    
   163.00  0.57854    
   164.00  0.59545    
   165.00  0.61143    
   166.00  0.62455    
   167.00  0.63258    
   168.00  0.63339    
   169.00  0.62567    
   170.00  0.60947    
   171.00  0.58627    
   172.00  0.55883    
   173.00  0.53133    
   174.00  0.50951    
   175.00  0.50002    
   176.00  0.50907    
   177.00  0.53909    
   178.00  0.58344    
   179.00  0.62446    
   180.00  0.64130    
 |--------|------------|
0.610000     micron = Wavelength
0.181274     = Extinction efficiency (Q)
0.167215     = Scattering efficiency (Qs)
0.140580E-01 = Absorption efficiency (Qa)
 21.2426     = Lidar ratio
0.957026E-02 micron^2 = <b> = Average surface area per particle
0.173484E-02 microns^2 = Extinction cross section (C)
0.160030E-02 microns^2 = Scattering cross section (Cs)
0.134539E-03 microns^2 = Absorption cross section (Ca)
 |----------------------------------------------------|
 | COMMENTAIRES:                                      |
 |----------------------------------------------------|
 |   -Cross section / <b> should = efficiency         |
 |    is independant of the normalisation of dN/dx    |
 |   -The integral of the phase fct / 4 pi over all   |
 |    directions (solid angle) = 1.                   |
 |   -The volume coefficient (k) is equal to C * N    |
 |      = cross section * Number density              |
 |      typical units: [um^2]*[particles/cm^3] =      |
 |      [10^-3 km-1]                                  |
 |      N = M/(d*4/3*pi*r^3) where d is the density   |
 |      of particle, M is the mass per unit volume    |
 |      and 4/3*pi*r^3 is the average volume  of a    |
 |      particle.                                     |
 |      typical units:  M -> [ug/m^3], d -> [g/cm^3]  |
 |                      r -> [um]                     |
 |      Lidar ratio= 4 pi Qe / phase_fct(180)*Qs      |
 |----------------------------------------------------|
