 |--------|------------|
 | ANGLE  |  PHASE FCT |
 |--------|------------|
     0.00   38.888    
     1.00   38.458    
     2.00   37.210    
     3.00   35.267    
     4.00   32.800    
     5.00   30.000    
     6.00   27.045    
     7.00   24.087    
     8.00   21.243    
     9.00   18.592    
    10.00   16.182    
    11.00   14.035    
    12.00   12.152    
    13.00   10.522    
    14.00   9.1272    
    15.00   7.9423    
    16.00   6.9427    
    17.00   6.1033    
    18.00   5.4006    
    19.00   4.8134    
    20.00   4.3229    
    21.00   3.9128    
    22.00   3.5691    
    23.00   3.2800    
    24.00   3.0357    
    25.00   2.8280    
    26.00   2.6500    
    27.00   2.4962    
    28.00   2.3621    
    29.00   2.2439    
    30.00   2.1388    
    31.00   2.0442    
    32.00   1.9583    
    33.00   1.8796    
    34.00   1.8068    
    35.00   1.7389    
    36.00   1.6753    
    37.00   1.6152    
    38.00   1.5583    
    39.00   1.5041    
    40.00   1.4523    
    41.00   1.4028    
    42.00   1.3553    
    43.00   1.3097    
    44.00   1.2658    
    45.00   1.2236    
    46.00   1.1830    
    47.00   1.1438    
    48.00   1.1060    
    49.00   1.0697    
    50.00   1.0346    
    51.00   1.0008    
    52.00  0.96823    
    53.00  0.93684    
    54.00  0.90660    
    55.00  0.87746    
    56.00  0.84940    
    57.00  0.82237    
    58.00  0.79635    
    59.00  0.77130    
    60.00  0.74718    
    61.00  0.72398    
    62.00  0.70166    
    63.00  0.68018    
    64.00  0.65953    
    65.00  0.63968    
    66.00  0.62059    
    67.00  0.60225    
    68.00  0.58462    
    69.00  0.56770    
    70.00  0.55144    
    71.00  0.53584    
    72.00  0.52086    
    73.00  0.50649    
    74.00  0.49271    
    75.00  0.47950    
    76.00  0.46684    
    77.00  0.45471    
    78.00  0.44310    
    79.00  0.43199    
    80.00  0.42137    
    81.00  0.41121    
    82.00  0.40150    
    83.00  0.39224    
    84.00  0.38340    
    85.00  0.37498    
    86.00  0.36696    
    87.00  0.35932    
    88.00  0.35207    
    89.00  0.34518    
    90.00  0.33864    
    91.00  0.33245    
    92.00  0.32660    
    93.00  0.32106    
    94.00  0.31585    
    95.00  0.31094    
    96.00  0.30633    
    97.00  0.30201    
    98.00  0.29797    
    99.00  0.29420    
   100.00  0.29070    
   101.00  0.28746    
   102.00  0.28447    
   103.00  0.28173    
   104.00  0.27923    
   105.00  0.27696    
   106.00  0.27491    
   107.00  0.27309    
   108.00  0.27149    
   109.00  0.27009    
   110.00  0.26891    
   111.00  0.26793    
   112.00  0.26715    
   113.00  0.26656    
   114.00  0.26617    
   115.00  0.26597    
   116.00  0.26596    
   117.00  0.26613    
   118.00  0.26649    
   119.00  0.26704    
   120.00  0.26778    
   121.00  0.26871    
   122.00  0.26982    
   123.00  0.27113    
   124.00  0.27264    
   125.00  0.27436    
   126.00  0.27629    
   127.00  0.27843    
   128.00  0.28082    
   129.00  0.28345    
   130.00  0.28634    
   131.00  0.28952    
   132.00  0.29301    
   133.00  0.29683    
   134.00  0.30102    
   135.00  0.30562    
   136.00  0.31066    
   137.00  0.31620    
   138.00  0.32230    
   139.00  0.32902    
   140.00  0.33642    
   141.00  0.34459    
   142.00  0.35360    
   143.00  0.36353    
   144.00  0.37447    
   145.00  0.38650    
   146.00  0.39967    
   147.00  0.41404    
   148.00  0.42961    
   149.00  0.44637    
   150.00  0.46424    
   151.00  0.48309    
   152.00  0.50270    
   153.00  0.52277    
   154.00  0.54293    
   155.00  0.56268    
   156.00  0.58150    
   157.00  0.59878    
   158.00  0.61394    
   159.00  0.62646    
   160.00  0.63596    
   161.00  0.64231    
   162.00  0.64571    
   163.00  0.64673    
   164.00  0.64637    
   165.00  0.64603    
   166.00  0.64745    
   167.00  0.65256    
   168.00  0.66335    
   169.00  0.68169    
   170.00  0.70910    
   171.00  0.74658    
   172.00  0.79437    
   173.00  0.85166    
   174.00  0.91643    
   175.00  0.98535    
   176.00   1.0538    
   177.00   1.1160    
   178.00   1.1662    
   179.00   1.1988    
   180.00   1.2102    
 |--------|------------|
0.510000     micron = Wavelength
0.115317     = Extinction efficiency (Q)
0.101711     = Scattering efficiency (Qs)
0.136066E-01 = Absorption efficiency (Qa)
 11.7730     = Lidar ratio
0.302565E-02 micron^2 = <b> = Average surface area per particle
0.348910E-03 microns^2 = Extinction cross section (C)
0.307741E-03 microns^2 = Scattering cross section (Cs)
0.411689E-04 microns^2 = Absorption cross section (Ca)
 |----------------------------------------------------|
 | COMMENTAIRES:                                      |
 |----------------------------------------------------|
 |   -Cross section / <b> should = efficiency         |
 |    is independant of the normalisation of dN/dx    |
 |   -The integral of the phase fct / 4 pi over all   |
 |    directions (solid angle) = 1.                   |
 |   -The volume coefficient (k) is equal to C * N    |
 |      = cross section * Number density              |
 |      typical units: [um^2]*[particles/cm^3] =      |
 |      [10^-3 km-1]                                  |
 |      N = M/(d*4/3*pi*r^3) where d is the density   |
 |      of particle, M is the mass per unit volume    |
 |      and 4/3*pi*r^3 is the average volume  of a    |
 |      particle.                                     |
 |      typical units:  M -> [ug/m^3], d -> [g/cm^3]  |
 |                      r -> [um]                     |
 |      Lidar ratio= 4 pi Qe / phase_fct(180)*Qs      |
 |----------------------------------------------------|
