 |--------|------------|
 | ANGLE  |  PHASE FCT |
 |--------|------------|
     0.00   52.251    
     1.00   51.467    
     2.00   49.224    
     3.00   45.812    
     4.00   41.619    
     5.00   37.042    
     6.00   32.421    
     7.00   28.009    
     8.00   23.965    
     9.00   20.376    
    10.00   17.266    
    11.00   14.624    
    12.00   12.412    
    13.00   10.581    
    14.00   9.0771    
    15.00   7.8494    
    16.00   6.8502    
    17.00   6.0377    
    18.00   5.3762    
    19.00   4.8356    
    20.00   4.3913    
    21.00   4.0231    
    22.00   3.7151    
    23.00   3.4543    
    24.00   3.2306    
    25.00   3.0362    
    26.00   2.8649    
    27.00   2.7121    
    28.00   2.5740    
    29.00   2.4480    
    30.00   2.3318    
    31.00   2.2239    
    32.00   2.1230    
    33.00   2.0282    
    34.00   1.9388    
    35.00   1.8541    
    36.00   1.7737    
    37.00   1.6974    
    38.00   1.6247    
    39.00   1.5554    
    40.00   1.4895    
    41.00   1.4265    
    42.00   1.3666    
    43.00   1.3094    
    44.00   1.2548    
    45.00   1.2028    
    46.00   1.1532    
    47.00   1.1060    
    48.00   1.0609    
    49.00   1.0180    
    50.00  0.97713    
    51.00  0.93816    
    52.00  0.90105    
    53.00  0.86570    
    54.00  0.83203    
    55.00  0.79997    
    56.00  0.76943    
    57.00  0.74036    
    58.00  0.71267    
    59.00  0.68631    
    60.00  0.66122    
    61.00  0.63732    
    62.00  0.61457    
    63.00  0.59291    
    64.00  0.57229    
    65.00  0.55266    
    66.00  0.53396    
    67.00  0.51617    
    68.00  0.49924    
    69.00  0.48312    
    70.00  0.46778    
    71.00  0.45318    
    72.00  0.43928    
    73.00  0.42606    
    74.00  0.41349    
    75.00  0.40153    
    76.00  0.39015    
    77.00  0.37934    
    78.00  0.36906    
    79.00  0.35930    
    80.00  0.35002    
    81.00  0.34122    
    82.00  0.33287    
    83.00  0.32494    
    84.00  0.31743    
    85.00  0.31032    
    86.00  0.30358    
    87.00  0.29722    
    88.00  0.29120    
    89.00  0.28552    
    90.00  0.28016    
    91.00  0.27512    
    92.00  0.27038    
    93.00  0.26593    
    94.00  0.26176    
    95.00  0.25786    
    96.00  0.25422    
    97.00  0.25084    
    98.00  0.24770    
    99.00  0.24480    
   100.00  0.24213    
   101.00  0.23969    
   102.00  0.23746    
   103.00  0.23545    
   104.00  0.23365    
   105.00  0.23204    
   106.00  0.23064    
   107.00  0.22943    
   108.00  0.22841    
   109.00  0.22758    
   110.00  0.22693    
   111.00  0.22647    
   112.00  0.22619    
   113.00  0.22608    
   114.00  0.22616    
   115.00  0.22641    
   116.00  0.22684    
   117.00  0.22745    
   118.00  0.22824    
   119.00  0.22921    
   120.00  0.23037    
   121.00  0.23171    
   122.00  0.23325    
   123.00  0.23498    
   124.00  0.23692    
   125.00  0.23906    
   126.00  0.24142    
   127.00  0.24401    
   128.00  0.24683    
   129.00  0.24989    
   130.00  0.25321    
   131.00  0.25681    
   132.00  0.26068    
   133.00  0.26486    
   134.00  0.26936    
   135.00  0.27419    
   136.00  0.27937    
   137.00  0.28493    
   138.00  0.29089    
   139.00  0.29728    
   140.00  0.30411    
   141.00  0.31142    
   142.00  0.31925    
   143.00  0.32762    
   144.00  0.33656    
   145.00  0.34613    
   146.00  0.35636    
   147.00  0.36730    
   148.00  0.37901    
   149.00  0.39154    
   150.00  0.40494    
   151.00  0.41926    
   152.00  0.43456    
   153.00  0.45083    
   154.00  0.46807    
   155.00  0.48619    
   156.00  0.50504    
   157.00  0.52433    
   158.00  0.54365    
   159.00  0.56238    
   160.00  0.57974    
   161.00  0.59470    
   162.00  0.60610    
   163.00  0.61267    
   164.00  0.61319    
   165.00  0.60665    
   166.00  0.59249    
   167.00  0.57088    
   168.00  0.54290    
   169.00  0.51064    
   170.00  0.47709    
   171.00  0.44597    
   172.00  0.42117    
   173.00  0.40620    
   174.00  0.40344    
   175.00  0.41340    
   176.00  0.43418    
   177.00  0.46130    
   178.00  0.48834    
   179.00  0.50829    
   180.00  0.51564    
 |--------|------------|
0.650000     micron = Wavelength
0.121532     = Extinction efficiency (Q)
0.111931     = Scattering efficiency (Qs)
0.960083E-02 = Absorption efficiency (Qa)
 26.4608     = Lidar ratio
0.628001E-02 micron^2 = <b> = Average surface area per particle
0.763223E-03 microns^2 = Extinction cross section (C)
0.702929E-03 microns^2 = Scattering cross section (Cs)
0.602933E-04 microns^2 = Absorption cross section (Ca)
 |----------------------------------------------------|
 | COMMENTAIRES:                                      |
 |----------------------------------------------------|
 |   -Cross section / <b> should = efficiency         |
 |    is independant of the normalisation of dN/dx    |
 |   -The integral of the phase fct / 4 pi over all   |
 |    directions (solid angle) = 1.                   |
 |   -The volume coefficient (k) is equal to C * N    |
 |      = cross section * Number density              |
 |      typical units: [um^2]*[particles/cm^3] =      |
 |      [10^-3 km-1]                                  |
 |      N = M/(d*4/3*pi*r^3) where d is the density   |
 |      of particle, M is the mass per unit volume    |
 |      and 4/3*pi*r^3 is the average volume  of a    |
 |      particle.                                     |
 |      typical units:  M -> [ug/m^3], d -> [g/cm^3]  |
 |                      r -> [um]                     |
 |      Lidar ratio= 4 pi Qe / phase_fct(180)*Qs      |
 |----------------------------------------------------|
