 |--------|------------|
 | ANGLE  |  PHASE FCT |
 |--------|------------|
     0.00   163.04    
     1.00   150.17    
     2.00   118.02    
     3.00   80.804    
     4.00   50.353    
     5.00   30.548    
     6.00   19.226    
     7.00   12.912    
     8.00   9.3358    
     9.00   7.3323    
    10.00   6.1926    
    11.00   5.4800    
    12.00   4.9943    
    13.00   4.6475    
    14.00   4.3809    
    15.00   4.1635    
    16.00   3.9829    
    17.00   3.8252    
    18.00   3.6791    
    19.00   3.5456    
    20.00   3.4270    
    21.00   3.3177    
    22.00   3.2120    
    23.00   3.1102    
    24.00   3.0148    
    25.00   2.9251    
    26.00   2.8381    
    27.00   2.7526    
    28.00   2.6697    
    29.00   2.5907    
    30.00   2.5145    
    31.00   2.4393    
    32.00   2.3655    
    33.00   2.2946    
    34.00   2.2264    
    35.00   2.1592    
    36.00   2.0931    
    37.00   2.0293    
    38.00   1.9680    
    39.00   1.9077    
    40.00   1.8484    
    41.00   1.7911    
    42.00   1.7359    
    43.00   1.6818    
    44.00   1.6286    
    45.00   1.5773    
    46.00   1.5277    
    47.00   1.4792    
    48.00   1.4317    
    49.00   1.3858    
    50.00   1.3415    
    51.00   1.2982    
    52.00   1.2559    
    53.00   1.2151    
    54.00   1.1756    
    55.00   1.1372    
    56.00   1.0998    
    57.00   1.0637    
    58.00   1.0288    
    59.00  0.99488    
    60.00  0.96197    
    61.00  0.93025    
    62.00  0.89963    
    63.00  0.86994    
    64.00  0.84119    
    65.00  0.81350    
    66.00  0.78682    
    67.00  0.76101    
    68.00  0.73608    
    69.00  0.71212    
    70.00  0.68907    
    71.00  0.66683    
    72.00  0.64539    
    73.00  0.62484    
    74.00  0.60511    
    75.00  0.58611    
    76.00  0.56786    
    77.00  0.55041    
    78.00  0.53370    
    79.00  0.51764    
    80.00  0.50228    
    81.00  0.48764    
    82.00  0.47363    
    83.00  0.46024    
    84.00  0.44747    
    85.00  0.43533    
    86.00  0.42375    
    87.00  0.41272    
    88.00  0.40224    
    89.00  0.39228    
    90.00  0.38281    
    91.00  0.37384    
    92.00  0.36532    
    93.00  0.35723    
    94.00  0.34958    
    95.00  0.34235    
    96.00  0.33548    
    97.00  0.32899    
    98.00  0.32287    
    99.00  0.31709    
   100.00  0.31162    
   101.00  0.30647    
   102.00  0.30164    
   103.00  0.29709    
   104.00  0.29281    
   105.00  0.28881    
   106.00  0.28507    
   107.00  0.28157    
   108.00  0.27832    
   109.00  0.27531    
   110.00  0.27251    
   111.00  0.26993    
   112.00  0.26757    
   113.00  0.26542    
   114.00  0.26346    
   115.00  0.26170    
   116.00  0.26013    
   117.00  0.25874    
   118.00  0.25753    
   119.00  0.25650    
   120.00  0.25563    
   121.00  0.25493    
   122.00  0.25440    
   123.00  0.25403    
   124.00  0.25382    
   125.00  0.25377    
   126.00  0.25389    
   127.00  0.25418    
   128.00  0.25465    
   129.00  0.25530    
   130.00  0.25613    
   131.00  0.25717    
   132.00  0.25843    
   133.00  0.25993    
   134.00  0.26168    
   135.00  0.26372    
   136.00  0.26607    
   137.00  0.26876    
   138.00  0.27184    
   139.00  0.27533    
   140.00  0.27928    
   141.00  0.28371    
   142.00  0.28865    
   143.00  0.29411    
   144.00  0.30010    
   145.00  0.30660    
   146.00  0.31359    
   147.00  0.32092    
   148.00  0.32849    
   149.00  0.33617    
   150.00  0.34380    
   151.00  0.35107    
   152.00  0.35776    
   153.00  0.36369    
   154.00  0.36857    
   155.00  0.37216    
   156.00  0.37451    
   157.00  0.37573    
   158.00  0.37582    
   159.00  0.37514    
   160.00  0.37434    
   161.00  0.37376    
   162.00  0.37379    
   163.00  0.37536    
   164.00  0.37918    
   165.00  0.38501    
   166.00  0.39285    
   167.00  0.40290    
   168.00  0.41421    
   169.00  0.42606    
   170.00  0.44026    
   171.00  0.45807    
   172.00  0.47658    
   173.00  0.49160    
   174.00  0.49901    
   175.00  0.49101    
   176.00  0.46375    
   177.00  0.43469    
   178.00  0.43254    
   179.00  0.45761    
   180.00  0.47383    
 |--------|------------|
0.430000     micron = Wavelength
0.354295     = Extinction efficiency (Q)
0.331465     = Scattering efficiency (Qs)
0.228301E-01 = Absorption efficiency (Qa)
 28.3478     = Lidar ratio
0.116419E-01 micron^2 = <b> = Average surface area per particle
0.412466E-02 microns^2 = Extinction cross section (C)
0.385888E-02 microns^2 = Scattering cross section (Cs)
0.265785E-03 microns^2 = Absorption cross section (Ca)
 |----------------------------------------------------|
 | COMMENTAIRES:                                      |
 |----------------------------------------------------|
 |   -Cross section / <b> should = efficiency         |
 |    is independant of the normalisation of dN/dx    |
 |   -The integral of the phase fct / 4 pi over all   |
 |    directions (solid angle) = 1.                   |
 |   -The volume coefficient (k) is equal to C * N    |
 |      = cross section * Number density              |
 |      typical units: [um^2]*[particles/cm^3] =      |
 |      [10^-3 km-1]                                  |
 |      N = M/(d*4/3*pi*r^3) where d is the density   |
 |      of particle, M is the mass per unit volume    |
 |      and 4/3*pi*r^3 is the average volume  of a    |
 |      particle.                                     |
 |      typical units:  M -> [ug/m^3], d -> [g/cm^3]  |
 |                      r -> [um]                     |
 |      Lidar ratio= 4 pi Qe / phase_fct(180)*Qs      |
 |----------------------------------------------------|
