 |--------|------------|
 | ANGLE  |  PHASE FCT |
 |--------|------------|
     0.00   167.64    
     1.00   157.04    
     2.00   129.85    
     3.00   96.485    
     4.00   66.467    
     5.00   44.140    
     6.00   29.250    
     7.00   19.776    
     8.00   13.870    
     9.00   10.253    
    10.00   8.0389    
    11.00   6.6431    
    12.00   5.7278    
    13.00   5.1027    
    14.00   4.6513    
    15.00   4.3070    
    16.00   4.0341    
    17.00   3.8076    
    18.00   3.6105    
    19.00   3.4362    
    20.00   3.2817    
    21.00   3.1420    
    22.00   3.0122    
    23.00   2.8907    
    24.00   2.7778    
    25.00   2.6727    
    26.00   2.5735    
    27.00   2.4788    
    28.00   2.3887    
    29.00   2.3035    
    30.00   2.2228    
    31.00   2.1451    
    32.00   2.0703    
    33.00   1.9991    
    34.00   1.9312    
    35.00   1.8658    
    36.00   1.8024    
    37.00   1.7418    
    38.00   1.6838    
    39.00   1.6277    
    40.00   1.5734    
    41.00   1.5212    
    42.00   1.4712    
    43.00   1.4227    
    44.00   1.3758    
    45.00   1.3305    
    46.00   1.2871    
    47.00   1.2450    
    48.00   1.2042    
    49.00   1.1649    
    50.00   1.1270    
    51.00   1.0904    
    52.00   1.0549    
    53.00   1.0206    
    54.00  0.98765    
    55.00  0.95574    
    56.00  0.92482    
    57.00  0.89505    
    58.00  0.86635    
    59.00  0.83861    
    60.00  0.81178    
    61.00  0.78594    
    62.00  0.76106    
    63.00  0.73702    
    64.00  0.71382    
    65.00  0.69149    
    66.00  0.67002    
    67.00  0.64931    
    68.00  0.62935    
    69.00  0.61018    
    70.00  0.59178    
    71.00  0.57406    
    72.00  0.55702    
    73.00  0.54069    
    74.00  0.52505    
    75.00  0.51002    
    76.00  0.49562    
    77.00  0.48186    
    78.00  0.46870    
    79.00  0.45610    
    80.00  0.44407    
    81.00  0.43261    
    82.00  0.42168    
    83.00  0.41125    
    84.00  0.40134    
    85.00  0.39191    
    86.00  0.38296    
    87.00  0.37445    
    88.00  0.36639    
    89.00  0.35874    
    90.00  0.35150    
    91.00  0.34465    
    92.00  0.33817    
    93.00  0.33205    
    94.00  0.32627    
    95.00  0.32082    
    96.00  0.31568    
    97.00  0.31084    
    98.00  0.30629    
    99.00  0.30202    
   100.00  0.29801    
   101.00  0.29426    
   102.00  0.29075    
   103.00  0.28748    
   104.00  0.28443    
   105.00  0.28161    
   106.00  0.27900    
   107.00  0.27659    
   108.00  0.27439    
   109.00  0.27238    
   110.00  0.27056    
   111.00  0.26892    
   112.00  0.26747    
   113.00  0.26618    
   114.00  0.26507    
   115.00  0.26414    
   116.00  0.26336    
   117.00  0.26275    
   118.00  0.26231    
   119.00  0.26203    
   120.00  0.26190    
   121.00  0.26194    
   122.00  0.26215    
   123.00  0.26252    
   124.00  0.26306    
   125.00  0.26378    
   126.00  0.26469    
   127.00  0.26579    
   128.00  0.26710    
   129.00  0.26863    
   130.00  0.27040    
   131.00  0.27242    
   132.00  0.27473    
   133.00  0.27734    
   134.00  0.28029    
   135.00  0.28361    
   136.00  0.28734    
   137.00  0.29151    
   138.00  0.29617    
   139.00  0.30135    
   140.00  0.30709    
   141.00  0.31342    
   142.00  0.32036    
   143.00  0.32792    
   144.00  0.33607    
   145.00  0.34480    
   146.00  0.35404    
   147.00  0.36368    
   148.00  0.37356    
   149.00  0.38355    
   150.00  0.39344    
   151.00  0.40295    
   152.00  0.41183    
   153.00  0.41986    
   154.00  0.42679    
   155.00  0.43240    
   156.00  0.43668    
   157.00  0.43975    
   158.00  0.44172    
   159.00  0.44303    
   160.00  0.44432    
   161.00  0.44619    
   162.00  0.44932    
   163.00  0.45465    
   164.00  0.46286    
   165.00  0.47392    
   166.00  0.48747    
   167.00  0.50281    
   168.00  0.51845    
   169.00  0.53305    
   170.00  0.54672    
   171.00  0.55927    
   172.00  0.56815    
   173.00  0.56996    
   174.00  0.56216    
   175.00  0.54379    
   176.00  0.52085    
   177.00  0.51126    
   178.00  0.53089    
   179.00  0.56823    
   180.00  0.58748    
 |--------|------------|
0.520000     micron = Wavelength
0.265026     = Extinction efficiency (Q)
0.245295     = Scattering efficiency (Qs)
0.197315E-01 = Absorption efficiency (Qa)
 23.1109     = Lidar ratio
0.116555E-01 micron^2 = <b> = Average surface area per particle
0.308900E-02 microns^2 = Extinction cross section (C)
0.285902E-02 microns^2 = Scattering cross section (Cs)
0.229980E-03 microns^2 = Absorption cross section (Ca)
 |----------------------------------------------------|
 | COMMENTAIRES:                                      |
 |----------------------------------------------------|
 |   -Cross section / <b> should = efficiency         |
 |    is independant of the normalisation of dN/dx    |
 |   -The integral of the phase fct / 4 pi over all   |
 |    directions (solid angle) = 1.                   |
 |   -The volume coefficient (k) is equal to C * N    |
 |      = cross section * Number density              |
 |      typical units: [um^2]*[particles/cm^3] =      |
 |      [10^-3 km-1]                                  |
 |      N = M/(d*4/3*pi*r^3) where d is the density   |
 |      of particle, M is the mass per unit volume    |
 |      and 4/3*pi*r^3 is the average volume  of a    |
 |      particle.                                     |
 |      typical units:  M -> [ug/m^3], d -> [g/cm^3]  |
 |                      r -> [um]                     |
 |      Lidar ratio= 4 pi Qe / phase_fct(180)*Qs      |
 |----------------------------------------------------|
