 |--------|------------|
 | ANGLE  |  PHASE FCT |
 |--------|------------|
     0.00   119.30    
     1.00   114.50    
     2.00   101.63    
     3.00   84.310    
     4.00   66.392    
     5.00   50.469    
     6.00   37.590    
     7.00   27.767    
     8.00   20.564    
     9.00   15.424    
    10.00   11.820    
    11.00   9.3098    
    12.00   7.5609    
    13.00   6.3344    
    14.00   5.4624    
    15.00   4.8297    
    16.00   4.3592    
    17.00   3.9985    
    18.00   3.7126    
    19.00   3.4786    
    20.00   3.2817    
    21.00   3.1112    
    22.00   2.9599    
    23.00   2.8233    
    24.00   2.6985    
    25.00   2.5833    
    26.00   2.4759    
    27.00   2.3751    
    28.00   2.2803    
    29.00   2.1908    
    30.00   2.1060    
    31.00   2.0255    
    32.00   1.9488    
    33.00   1.8757    
    34.00   1.8061    
    35.00   1.7395    
    36.00   1.6758    
    37.00   1.6148    
    38.00   1.5564    
    39.00   1.5005    
    40.00   1.4467    
    41.00   1.3952    
    42.00   1.3457    
    43.00   1.2982    
    44.00   1.2525    
    45.00   1.2087    
    46.00   1.1666    
    47.00   1.1261    
    48.00   1.0871    
    49.00   1.0496    
    50.00   1.0137    
    51.00  0.97906    
    52.00  0.94577    
    53.00  0.91377    
    54.00  0.88302    
    55.00  0.85345    
    56.00  0.82502    
    57.00  0.79770    
    58.00  0.77145    
    59.00  0.74621    
    60.00  0.72197    
    61.00  0.69868    
    62.00  0.67633    
    63.00  0.65485    
    64.00  0.63423    
    65.00  0.61445    
    66.00  0.59548    
    67.00  0.57728    
    68.00  0.55983    
    69.00  0.54311    
    70.00  0.52710    
    71.00  0.51176    
    72.00  0.49708    
    73.00  0.48304    
    74.00  0.46962    
    75.00  0.45679    
    76.00  0.44454    
    77.00  0.43285    
    78.00  0.42170    
    79.00  0.41106    
    80.00  0.40093    
    81.00  0.39129    
    82.00  0.38212    
    83.00  0.37340    
    84.00  0.36512    
    85.00  0.35725    
    86.00  0.34979    
    87.00  0.34273    
    88.00  0.33603    
    89.00  0.32970    
    90.00  0.32371    
    91.00  0.31806    
    92.00  0.31272    
    93.00  0.30770    
    94.00  0.30297    
    95.00  0.29853    
    96.00  0.29436    
    97.00  0.29045    
    98.00  0.28680    
    99.00  0.28340    
   100.00  0.28023    
   101.00  0.27729    
   102.00  0.27458    
   103.00  0.27208    
   104.00  0.26978    
   105.00  0.26770    
   106.00  0.26580    
   107.00  0.26410    
   108.00  0.26259    
   109.00  0.26127    
   110.00  0.26012    
   111.00  0.25915    
   112.00  0.25836    
   113.00  0.25774    
   114.00  0.25729    
   115.00  0.25701    
   116.00  0.25691    
   117.00  0.25697    
   118.00  0.25720    
   119.00  0.25761    
   120.00  0.25820    
   121.00  0.25896    
   122.00  0.25991    
   123.00  0.26105    
   124.00  0.26240    
   125.00  0.26395    
   126.00  0.26572    
   127.00  0.26772    
   128.00  0.26997    
   129.00  0.27248    
   130.00  0.27528    
   131.00  0.27838    
   132.00  0.28181    
   133.00  0.28559    
   134.00  0.28975    
   135.00  0.29432    
   136.00  0.29933    
   137.00  0.30481    
   138.00  0.31079    
   139.00  0.31731    
   140.00  0.32437    
   141.00  0.33201    
   142.00  0.34023    
   143.00  0.34904    
   144.00  0.35841    
   145.00  0.36832    
   146.00  0.37873    
   147.00  0.38955    
   148.00  0.40070    
   149.00  0.41207    
   150.00  0.42352    
   151.00  0.43492    
   152.00  0.44611    
   153.00  0.45697    
   154.00  0.46741    
   155.00  0.47738    
   156.00  0.48695    
   157.00  0.49628    
   158.00  0.50564    
   159.00  0.51540    
   160.00  0.52600    
   161.00  0.53782    
   162.00  0.55115    
   163.00  0.56600    
   164.00  0.58192    
   165.00  0.59780    
   166.00  0.61195    
   167.00  0.62231    
   168.00  0.62676    
   169.00  0.62384    
   170.00  0.61327    
   171.00  0.59594    
   172.00  0.57362    
   173.00  0.54939    
   174.00  0.52806    
   175.00  0.51602    
   176.00  0.52036    
   177.00  0.54557    
   178.00  0.58710    
   179.00  0.62753    
   180.00  0.64450    
 |--------|------------|
0.580000     micron = Wavelength
0.190258     = Extinction efficiency (Q)
0.175585     = Scattering efficiency (Qs)
0.146730E-01 = Absorption efficiency (Qa)
 21.1272     = Lidar ratio
0.957014E-02 micron^2 = <b> = Average surface area per particle
0.182080E-02 microns^2 = Extinction cross section (C)
0.168037E-02 microns^2 = Scattering cross section (Cs)
0.140422E-03 microns^2 = Absorption cross section (Ca)
 |----------------------------------------------------|
 | COMMENTAIRES:                                      |
 |----------------------------------------------------|
 |   -Cross section / <b> should = efficiency         |
 |    is independant of the normalisation of dN/dx    |
 |   -The integral of the phase fct / 4 pi over all   |
 |    directions (solid angle) = 1.                   |
 |   -The volume coefficient (k) is equal to C * N    |
 |      = cross section * Number density              |
 |      typical units: [um^2]*[particles/cm^3] =      |
 |      [10^-3 km-1]                                  |
 |      N = M/(d*4/3*pi*r^3) where d is the density   |
 |      of particle, M is the mass per unit volume    |
 |      and 4/3*pi*r^3 is the average volume  of a    |
 |      particle.                                     |
 |      typical units:  M -> [ug/m^3], d -> [g/cm^3]  |
 |                      r -> [um]                     |
 |      Lidar ratio= 4 pi Qe / phase_fct(180)*Qs      |
 |----------------------------------------------------|
