 |--------|------------|
 | ANGLE  |  PHASE FCT |
 |--------|------------|
     0.00   47.406    
     1.00   46.566    
     2.00   44.178    
     3.00   40.596    
     4.00   36.278    
     5.00   31.675    
     6.00   27.146    
     7.00   22.937    
     8.00   19.188    
     9.00   15.954    
    10.00   13.235    
    11.00   10.991    
    12.00   9.1672    
    13.00   7.7016    
    14.00   6.5332    
    15.00   5.6067    
    16.00   4.8739    
    17.00   4.2944    
    18.00   3.8352    
    19.00   3.4697    
    20.00   3.1768    
    21.00   2.9401    
    22.00   2.7467    
    23.00   2.5867    
    24.00   2.4525    
    25.00   2.3382    
    26.00   2.2392    
    27.00   2.1521    
    28.00   2.0743    
    29.00   2.0038    
    30.00   1.9391    
    31.00   1.8789    
    32.00   1.8225    
    33.00   1.7691    
    34.00   1.7183    
    35.00   1.6697    
    36.00   1.6229    
    37.00   1.5779    
    38.00   1.5344    
    39.00   1.4923    
    40.00   1.4515    
    41.00   1.4119    
    42.00   1.3734    
    43.00   1.3361    
    44.00   1.2998    
    45.00   1.2645    
    46.00   1.2302    
    47.00   1.1969    
    48.00   1.1645    
    49.00   1.1330    
    50.00   1.1024    
    51.00   1.0726    
    52.00   1.0437    
    53.00   1.0156    
    54.00  0.98831    
    55.00  0.96179    
    56.00  0.93605    
    57.00  0.91106    
    58.00  0.88681    
    59.00  0.86328    
    60.00  0.84047    
    61.00  0.81834    
    62.00  0.79689    
    63.00  0.77611    
    64.00  0.75599    
    65.00  0.73650    
    66.00  0.71765    
    67.00  0.69941    
    68.00  0.68177    
    69.00  0.66472    
    70.00  0.64825    
    71.00  0.63235    
    72.00  0.61701    
    73.00  0.60221    
    74.00  0.58795    
    75.00  0.57421    
    76.00  0.56099    
    77.00  0.54827    
    78.00  0.53605    
    79.00  0.52432    
    80.00  0.51306    
    81.00  0.50226    
    82.00  0.49193    
    83.00  0.48204    
    84.00  0.47259    
    85.00  0.46357    
    86.00  0.45497    
    87.00  0.44678    
    88.00  0.43900    
    89.00  0.43161    
    90.00  0.42461    
    91.00  0.41799    
    92.00  0.41174    
    93.00  0.40585    
    94.00  0.40031    
    95.00  0.39512    
    96.00  0.39026    
    97.00  0.38574    
    98.00  0.38153    
    99.00  0.37764    
   100.00  0.37406    
   101.00  0.37077    
   102.00  0.36777    
   103.00  0.36505    
   104.00  0.36261    
   105.00  0.36044    
   106.00  0.35853    
   107.00  0.35687    
   108.00  0.35545    
   109.00  0.35428    
   110.00  0.35334    
   111.00  0.35263    
   112.00  0.35213    
   113.00  0.35185    
   114.00  0.35178    
   115.00  0.35191    
   116.00  0.35224    
   117.00  0.35276    
   118.00  0.35347    
   119.00  0.35437    
   120.00  0.35544    
   121.00  0.35669    
   122.00  0.35812    
   123.00  0.35971    
   124.00  0.36147    
   125.00  0.36341    
   126.00  0.36551    
   127.00  0.36778    
   128.00  0.37022    
   129.00  0.37284    
   130.00  0.37563    
   131.00  0.37861    
   132.00  0.38179    
   133.00  0.38516    
   134.00  0.38876    
   135.00  0.39259    
   136.00  0.39668    
   137.00  0.40106    
   138.00  0.40575    
   139.00  0.41080    
   140.00  0.41627    
   141.00  0.42220    
   142.00  0.42867    
   143.00  0.43575    
   144.00  0.44355    
   145.00  0.45215    
   146.00  0.46168    
   147.00  0.47223    
   148.00  0.48393    
   149.00  0.49687    
   150.00  0.51114    
   151.00  0.52680    
   152.00  0.54385    
   153.00  0.56222    
   154.00  0.58175    
   155.00  0.60217    
   156.00  0.62308    
   157.00  0.64398    
   158.00  0.66423    
   159.00  0.68314    
   160.00  0.70005    
   161.00  0.71441    
   162.00  0.72591    
   163.00  0.73457    
   164.00  0.74082    
   165.00  0.74543    
   166.00  0.74949    
   167.00  0.75427    
   168.00  0.76113    
   169.00  0.77146    
   170.00  0.78664    
   171.00  0.80803    
   172.00  0.83691    
   173.00  0.87421    
   174.00  0.92005    
   175.00  0.97323    
   176.00   1.0307    
   177.00   1.0872    
   178.00   1.1356    
   179.00   1.1686    
   180.00   1.1804    
 |--------|------------|
0.400000     micron = Wavelength
0.142374     = Extinction efficiency (Q)
0.125444     = Scattering efficiency (Qs)
0.169299E-01 = Absorption efficiency (Qa)
 12.0827     = Lidar ratio
0.302565E-02 micron^2 = <b> = Average surface area per particle
0.430773E-03 microns^2 = Extinction cross section (C)
0.379549E-03 microns^2 = Scattering cross section (Cs)
0.512240E-04 microns^2 = Absorption cross section (Ca)
 |----------------------------------------------------|
 | COMMENTAIRES:                                      |
 |----------------------------------------------------|
 |   -Cross section / <b> should = efficiency         |
 |    is independant of the normalisation of dN/dx    |
 |   -The integral of the phase fct / 4 pi over all   |
 |    directions (solid angle) = 1.                   |
 |   -The volume coefficient (k) is equal to C * N    |
 |      = cross section * Number density              |
 |      typical units: [um^2]*[particles/cm^3] =      |
 |      [10^-3 km-1]                                  |
 |      N = M/(d*4/3*pi*r^3) where d is the density   |
 |      of particle, M is the mass per unit volume    |
 |      and 4/3*pi*r^3 is the average volume  of a    |
 |      particle.                                     |
 |      typical units:  M -> [ug/m^3], d -> [g/cm^3]  |
 |                      r -> [um]                     |
 |      Lidar ratio= 4 pi Qe / phase_fct(180)*Qs      |
 |----------------------------------------------------|
