 |--------|------------|
 | ANGLE  |  PHASE FCT |
 |--------|------------|
     0.00   129.07    
     1.00   121.88    
     2.00   103.19    
     3.00   79.615    
     4.00   57.465    
     5.00   40.019    
     6.00   27.628    
     7.00   19.277    
     8.00   13.809    
     9.00   10.304    
    10.00   8.0708    
    11.00   6.6277    
    12.00   5.6724    
    13.00   5.0213    
    14.00   4.5585    
    15.00   4.2134    
    16.00   3.9448    
    17.00   3.7259    
    18.00   3.5397    
    19.00   3.3776    
    20.00   3.2342    
    21.00   3.1044    
    22.00   2.9843    
    23.00   2.8725    
    24.00   2.7684    
    25.00   2.6710    
    26.00   2.5786    
    27.00   2.4906    
    28.00   2.4069    
    29.00   2.3273    
    30.00   2.2514    
    31.00   2.1783    
    32.00   2.1080    
    33.00   2.0406    
    34.00   1.9760    
    35.00   1.9135    
    36.00   1.8531    
    37.00   1.7949    
    38.00   1.7389    
    39.00   1.6846    
    40.00   1.6319    
    41.00   1.5811    
    42.00   1.5320    
    43.00   1.4844    
    44.00   1.4381    
    45.00   1.3935    
    46.00   1.3503    
    47.00   1.3083    
    48.00   1.2676    
    49.00   1.2282    
    50.00   1.1901    
    51.00   1.1531    
    52.00   1.1172    
    53.00   1.0825    
    54.00   1.0490    
    55.00   1.0164    
    56.00  0.98486    
    57.00  0.95436    
    58.00  0.92486    
    59.00  0.89629    
    60.00  0.86864    
    61.00  0.84193    
    62.00  0.81613    
    63.00  0.79119    
    64.00  0.76708    
    65.00  0.74383    
    66.00  0.72141    
    67.00  0.69976    
    68.00  0.67888    
    69.00  0.65878    
    70.00  0.63944    
    71.00  0.62081    
    72.00  0.60288    
    73.00  0.58566    
    74.00  0.56913    
    75.00  0.55324    
    76.00  0.53800    
    77.00  0.52340    
    78.00  0.50943    
    79.00  0.49604    
    80.00  0.48323    
    81.00  0.47100    
    82.00  0.45932    
    83.00  0.44817    
    84.00  0.43754    
    85.00  0.42743    
    86.00  0.41779    
    87.00  0.40863    
    88.00  0.39992    
    89.00  0.39165    
    90.00  0.38381    
    91.00  0.37637    
    92.00  0.36933    
    93.00  0.36267    
    94.00  0.35637    
    95.00  0.35043    
    96.00  0.34482    
    97.00  0.33954    
    98.00  0.33457    
    99.00  0.32991    
   100.00  0.32553    
   101.00  0.32144    
   102.00  0.31763    
   103.00  0.31407    
   104.00  0.31076    
   105.00  0.30771    
   106.00  0.30489    
   107.00  0.30230    
   108.00  0.29993    
   109.00  0.29778    
   110.00  0.29584    
   111.00  0.29411    
   112.00  0.29257    
   113.00  0.29123    
   114.00  0.29008    
   115.00  0.28912    
   116.00  0.28834    
   117.00  0.28773    
   118.00  0.28730    
   119.00  0.28705    
   120.00  0.28696    
   121.00  0.28705    
   122.00  0.28731    
   123.00  0.28774    
   124.00  0.28834    
   125.00  0.28913    
   126.00  0.29010    
   127.00  0.29126    
   128.00  0.29262    
   129.00  0.29419    
   130.00  0.29598    
   131.00  0.29802    
   132.00  0.30031    
   133.00  0.30288    
   134.00  0.30575    
   135.00  0.30895    
   136.00  0.31250    
   137.00  0.31643    
   138.00  0.32079    
   139.00  0.32560    
   140.00  0.33089    
   141.00  0.33668    
   142.00  0.34299    
   143.00  0.34984    
   144.00  0.35722    
   145.00  0.36511    
   146.00  0.37348    
   147.00  0.38224    
   148.00  0.39131    
   149.00  0.40057    
   150.00  0.40988    
   151.00  0.41903    
   152.00  0.42782    
   153.00  0.43608    
   154.00  0.44361    
   155.00  0.45023    
   156.00  0.45591    
   157.00  0.46071    
   158.00  0.46474    
   159.00  0.46832    
   160.00  0.47194    
   161.00  0.47611    
   162.00  0.48136    
   163.00  0.48835    
   164.00  0.49743    
   165.00  0.50839    
   166.00  0.52067    
   167.00  0.53332    
   168.00  0.54502    
   169.00  0.55469    
   170.00  0.56211    
   171.00  0.56685    
   172.00  0.56723    
   173.00  0.56143    
   174.00  0.54899    
   175.00  0.53186    
   176.00  0.51701    
   177.00  0.51701    
   178.00  0.53928    
   179.00  0.57163    
   180.00  0.58722    
 |--------|------------|
0.470000     micron = Wavelength
0.249547     = Extinction efficiency (Q)
0.232120     = Scattering efficiency (Qs)
0.174274E-01 = Absorption efficiency (Qa)
 23.0063     = Lidar ratio
0.956817E-02 micron^2 = <b> = Average surface area per particle
0.238771E-02 microns^2 = Extinction cross section (C)
0.222096E-02 microns^2 = Scattering cross section (Cs)
0.166748E-03 microns^2 = Absorption cross section (Ca)
 |----------------------------------------------------|
 | COMMENTAIRES:                                      |
 |----------------------------------------------------|
 |   -Cross section / <b> should = efficiency         |
 |    is independant of the normalisation of dN/dx    |
 |   -The integral of the phase fct / 4 pi over all   |
 |    directions (solid angle) = 1.                   |
 |   -The volume coefficient (k) is equal to C * N    |
 |      = cross section * Number density              |
 |      typical units: [um^2]*[particles/cm^3] =      |
 |      [10^-3 km-1]                                  |
 |      N = M/(d*4/3*pi*r^3) where d is the density   |
 |      of particle, M is the mass per unit volume    |
 |      and 4/3*pi*r^3 is the average volume  of a    |
 |      particle.                                     |
 |      typical units:  M -> [ug/m^3], d -> [g/cm^3]  |
 |                      r -> [um]                     |
 |      Lidar ratio= 4 pi Qe / phase_fct(180)*Qs      |
 |----------------------------------------------------|
