 |--------|------------|
 | ANGLE  |  PHASE FCT |
 |--------|------------|
     0.00   30.406    
     1.00   30.183    
     2.00   29.529    
     3.00   28.489    
     4.00   27.128    
     5.00   25.526    
     6.00   23.762    
     7.00   21.914    
     8.00   20.047    
     9.00   18.217    
    10.00   16.464    
    11.00   14.817    
    12.00   13.294    
    13.00   11.903    
    14.00   10.648    
    15.00   9.5244    
    16.00   8.5265    
    17.00   7.6450    
    18.00   6.8701    
    19.00   6.1911    
    20.00   5.5977    
    21.00   5.0798    
    22.00   4.6280    
    23.00   4.2337    
    24.00   3.8893    
    25.00   3.5879    
    26.00   3.3233    
    27.00   3.0904    
    28.00   2.8846    
    29.00   2.7018    
    30.00   2.5387    
    31.00   2.3924    
    32.00   2.2605    
    33.00   2.1410    
    34.00   2.0319    
    35.00   1.9320    
    36.00   1.8399    
    37.00   1.7547    
    38.00   1.6755    
    39.00   1.6016    
    40.00   1.5323    
    41.00   1.4672    
    42.00   1.4059    
    43.00   1.3479    
    44.00   1.2930    
    45.00   1.2410    
    46.00   1.1916    
    47.00   1.1446    
    48.00   1.0998    
    49.00   1.0572    
    50.00   1.0165    
    51.00  0.97771    
    52.00  0.94066    
    53.00  0.90527    
    54.00  0.87146    
    55.00  0.83914    
    56.00  0.80826    
    57.00  0.77873    
    58.00  0.75049    
    59.00  0.72350    
    60.00  0.69768    
    61.00  0.67299    
    62.00  0.64938    
    63.00  0.62680    
    64.00  0.60521    
    65.00  0.58455    
    66.00  0.56481    
    67.00  0.54593    
    68.00  0.52787    
    69.00  0.51061    
    70.00  0.49411    
    71.00  0.47833    
    72.00  0.46325    
    73.00  0.44884    
    74.00  0.43508    
    75.00  0.42192    
    76.00  0.40935    
    77.00  0.39735    
    78.00  0.38589    
    79.00  0.37496    
    80.00  0.36452    
    81.00  0.35456    
    82.00  0.34507    
    83.00  0.33601    
    84.00  0.32739    
    85.00  0.31917    
    86.00  0.31135    
    87.00  0.30391    
    88.00  0.29684    
    89.00  0.29012    
    90.00  0.28374    
    91.00  0.27769    
    92.00  0.27195    
    93.00  0.26652    
    94.00  0.26139    
    95.00  0.25654    
    96.00  0.25196    
    97.00  0.24766    
    98.00  0.24361    
    99.00  0.23981    
   100.00  0.23626    
   101.00  0.23294    
   102.00  0.22985    
   103.00  0.22699    
   104.00  0.22434    
   105.00  0.22191    
   106.00  0.21968    
   107.00  0.21766    
   108.00  0.21584    
   109.00  0.21421    
   110.00  0.21277    
   111.00  0.21153    
   112.00  0.21047    
   113.00  0.20960    
   114.00  0.20891    
   115.00  0.20841    
   116.00  0.20809    
   117.00  0.20796    
   118.00  0.20802    
   119.00  0.20827    
   120.00  0.20872    
   121.00  0.20937    
   122.00  0.21023    
   123.00  0.21129    
   124.00  0.21259    
   125.00  0.21411    
   126.00  0.21588    
   127.00  0.21792    
   128.00  0.22023    
   129.00  0.22283    
   130.00  0.22576    
   131.00  0.22903    
   132.00  0.23266    
   133.00  0.23670    
   134.00  0.24117    
   135.00  0.24611    
   136.00  0.25156    
   137.00  0.25757    
   138.00  0.26417    
   139.00  0.27140    
   140.00  0.27933    
   141.00  0.28797    
   142.00  0.29738    
   143.00  0.30758    
   144.00  0.31858    
   145.00  0.33037    
   146.00  0.34295    
   147.00  0.35625    
   148.00  0.37018    
   149.00  0.38463    
   150.00  0.39941    
   151.00  0.41431    
   152.00  0.42907    
   153.00  0.44336    
   154.00  0.45684    
   155.00  0.46915    
   156.00  0.47990    
   157.00  0.48877    
   158.00  0.49550    
   159.00  0.49996    
   160.00  0.50219    
   161.00  0.50245    
   162.00  0.50125    
   163.00  0.49940    
   164.00  0.49796    
   165.00  0.49822    
   166.00  0.50163    
   167.00  0.50967    
   168.00  0.52371    
   169.00  0.54490    
   170.00  0.57396    
   171.00  0.61102    
   172.00  0.65554    
   173.00  0.70615    
   174.00  0.76067    
   175.00  0.81617    
   176.00  0.86911    
   177.00  0.91568    
   178.00  0.95217    
   179.00  0.97547    
   180.00  0.98348    
 |--------|------------|
0.620000     micron = Wavelength
0.111206     = Extinction efficiency (Q)
0.985586E-01 = Scattering efficiency (Qs)
0.126476E-01 = Absorption efficiency (Qa)
 14.4171     = Lidar ratio
0.302566E-02 micron^2 = <b> = Average surface area per particle
0.336472E-03 microns^2 = Extinction cross section (C)
0.298205E-03 microns^2 = Scattering cross section (Cs)
0.382675E-04 microns^2 = Absorption cross section (Ca)
 |----------------------------------------------------|
 | COMMENTAIRES:                                      |
 |----------------------------------------------------|
 |   -Cross section / <b> should = efficiency         |
 |    is independant of the normalisation of dN/dx    |
 |   -The integral of the phase fct / 4 pi over all   |
 |    directions (solid angle) = 1.                   |
 |   -The volume coefficient (k) is equal to C * N    |
 |      = cross section * Number density              |
 |      typical units: [um^2]*[particles/cm^3] =      |
 |      [10^-3 km-1]                                  |
 |      N = M/(d*4/3*pi*r^3) where d is the density   |
 |      of particle, M is the mass per unit volume    |
 |      and 4/3*pi*r^3 is the average volume  of a    |
 |      particle.                                     |
 |      typical units:  M -> [ug/m^3], d -> [g/cm^3]  |
 |                      r -> [um]                     |
 |      Lidar ratio= 4 pi Qe / phase_fct(180)*Qs      |
 |----------------------------------------------------|
