 |--------|------------|
 | ANGLE  |  PHASE FCT |
 |--------|------------|
     0.00   57.270    
     1.00   56.318    
     2.00   53.602    
     3.00   49.492    
     4.00   44.482    
     5.00   39.066    
     6.00   33.656    
     7.00   28.547    
     8.00   23.921    
     9.00   19.865    
    10.00   16.398    
    11.00   13.493    
    12.00   11.096    
    13.00   9.1431    
    14.00   7.5675    
    15.00   6.3058    
    16.00   5.3009    
    17.00   4.5034    
    18.00   3.8716    
    19.00   3.3713    
    20.00   2.9746    
    21.00   2.6590    
    22.00   2.4068    
    23.00   2.2040    
    24.00   2.0395    
    25.00   1.9049    
    26.00   1.7935    
    27.00   1.7001    
    28.00   1.6209    
    29.00   1.5528    
    30.00   1.4933    
    31.00   1.4408    
    32.00   1.3938    
    33.00   1.3512    
    34.00   1.3122    
    35.00   1.2761    
    36.00   1.2425    
    37.00   1.2109    
    38.00   1.1810    
    39.00   1.1526    
    40.00   1.1254    
    41.00   1.0994    
    42.00   1.0743    
    43.00   1.0501    
    44.00   1.0268    
    45.00   1.0041    
    46.00  0.98208    
    47.00  0.96068    
    48.00  0.93987    
    49.00  0.91959    
    50.00  0.89984    
    51.00  0.88056    
    52.00  0.86175    
    53.00  0.84340    
    54.00  0.82549    
    55.00  0.80801    
    56.00  0.79095    
    57.00  0.77429    
    58.00  0.75804    
    59.00  0.74218    
    60.00  0.72672    
    61.00  0.71165    
    62.00  0.69696    
    63.00  0.68265    
    64.00  0.66872    
    65.00  0.65516    
    66.00  0.64199    
    67.00  0.62919    
    68.00  0.61676    
    69.00  0.60470    
    70.00  0.59301    
    71.00  0.58169    
    72.00  0.57073    
    73.00  0.56015    
    74.00  0.54992    
    75.00  0.54006    
    76.00  0.53056    
    77.00  0.52142    
    78.00  0.51264    
    79.00  0.50421    
    80.00  0.49613    
    81.00  0.48840    
    82.00  0.48102    
    83.00  0.47398    
    84.00  0.46728    
    85.00  0.46092    
    86.00  0.45489    
    87.00  0.44919    
    88.00  0.44381    
    89.00  0.43876    
    90.00  0.43402    
    91.00  0.42960    
    92.00  0.42548    
    93.00  0.42166    
    94.00  0.41815    
    95.00  0.41492    
    96.00  0.41198    
    97.00  0.40933    
    98.00  0.40695    
    99.00  0.40483    
   100.00  0.40299    
   101.00  0.40140    
   102.00  0.40006    
   103.00  0.39897    
   104.00  0.39811    
   105.00  0.39749    
   106.00  0.39710    
   107.00  0.39693    
   108.00  0.39696    
   109.00  0.39721    
   110.00  0.39765    
   111.00  0.39829    
   112.00  0.39912    
   113.00  0.40012    
   114.00  0.40129    
   115.00  0.40264    
   116.00  0.40414    
   117.00  0.40579    
   118.00  0.40758    
   119.00  0.40952    
   120.00  0.41159    
   121.00  0.41378    
   122.00  0.41609    
   123.00  0.41851    
   124.00  0.42105    
   125.00  0.42368    
   126.00  0.42640    
   127.00  0.42921    
   128.00  0.43211    
   129.00  0.43509    
   130.00  0.43813    
   131.00  0.44125    
   132.00  0.44443    
   133.00  0.44767    
   134.00  0.45097    
   135.00  0.45432    
   136.00  0.45772    
   137.00  0.46117    
   138.00  0.46467    
   139.00  0.46822    
   140.00  0.47180    
   141.00  0.47542    
   142.00  0.47908    
   143.00  0.48277    
   144.00  0.48648    
   145.00  0.49021    
   146.00  0.49394    
   147.00  0.49766    
   148.00  0.50135    
   149.00  0.50500    
   150.00  0.50857    
   151.00  0.51205    
   152.00  0.51540    
   153.00  0.51859    
   154.00  0.52159    
   155.00  0.52437    
   156.00  0.52693    
   157.00  0.52923    
   158.00  0.53128    
   159.00  0.53309    
   160.00  0.53469    
   161.00  0.53610    
   162.00  0.53740    
   163.00  0.53865    
   164.00  0.53992    
   165.00  0.54130    
   166.00  0.54286    
   167.00  0.54468    
   168.00  0.54681    
   169.00  0.54928    
   170.00  0.55209    
   171.00  0.55520    
   172.00  0.55854    
   173.00  0.56201    
   174.00  0.56547    
   175.00  0.56878    
   176.00  0.57178    
   177.00  0.57430    
   178.00  0.57622    
   179.00  0.57742    
   180.00  0.57783    
 |--------|------------|
0.390000     micron = Wavelength
0.250392     = Extinction efficiency (Q)
0.921878E-01 = Scattering efficiency (Qs)
0.158204     = Absorption efficiency (Qa)
 59.0691     = Lidar ratio
0.259481E-02 micron^2 = <b> = Average surface area per particle
0.649719E-03 microns^2 = Extinction cross section (C)
0.239209E-03 microns^2 = Scattering cross section (Cs)
0.410509E-03 microns^2 = Absorption cross section (Ca)
 |----------------------------------------------------|
 | COMMENTAIRES:                                      |
 |----------------------------------------------------|
 |   -Cross section / <b> should = efficiency         |
 |    is independant of the normalisation of dN/dx    |
 |   -The integral of the phase fct / 4 pi over all   |
 |    directions (solid angle) = 1.                   |
 |   -The volume coefficient (k) is equal to C * N    |
 |      = cross section * Number density              |
 |      typical units: [um^2]*[particles/cm^3] =      |
 |      [10^-3 km-1]                                  |
 |      N = M/(d*4/3*pi*r^3) where d is the density   |
 |      of particle, M is the mass per unit volume    |
 |      and 4/3*pi*r^3 is the average volume  of a    |
 |      particle.                                     |
 |      typical units:  M -> [ug/m^3], d -> [g/cm^3]  |
 |                      r -> [um]                     |
 |      Lidar ratio= 4 pi Qe / phase_fct(180)*Qs      |
 |----------------------------------------------------|
