 |--------|------------|
 | ANGLE  |  PHASE FCT |
 |--------|------------|
     0.00   68.103    
     1.00   65.974    
     2.00   60.136    
     3.00   51.955    
     4.00   42.985    
     5.00   34.438    
     6.00   26.988    
     7.00   20.871    
     8.00   16.056    
     9.00   12.380    
    10.00   9.6343    
    11.00   7.6140    
    12.00   6.1413    
    13.00   5.0734    
    14.00   4.2991    
    15.00   3.7356    
    16.00   3.3222    
    17.00   3.0152    
    18.00   2.7834    
    19.00   2.6050    
    20.00   2.4644    
    21.00   2.3510    
    22.00   2.2571    
    23.00   2.1774    
    24.00   2.1084    
    25.00   2.0471    
    26.00   1.9919    
    27.00   1.9414    
    28.00   1.8945    
    29.00   1.8506    
    30.00   1.8090    
    31.00   1.7694    
    32.00   1.7314    
    33.00   1.6947    
    34.00   1.6593    
    35.00   1.6249    
    36.00   1.5913    
    37.00   1.5586    
    38.00   1.5265    
    39.00   1.4950    
    40.00   1.4641    
    41.00   1.4338    
    42.00   1.4040    
    43.00   1.3745    
    44.00   1.3456    
    45.00   1.3171    
    46.00   1.2890    
    47.00   1.2613    
    48.00   1.2341    
    49.00   1.2072    
    50.00   1.1808    
    51.00   1.1547    
    52.00   1.1291    
    53.00   1.1039    
    54.00   1.0791    
    55.00   1.0548    
    56.00   1.0309    
    57.00   1.0074    
    58.00  0.98439    
    59.00  0.96184    
    60.00  0.93975    
    61.00  0.91813    
    62.00  0.89698    
    63.00  0.87631    
    64.00  0.85613    
    65.00  0.83643    
    66.00  0.81722    
    67.00  0.79852    
    68.00  0.78031    
    69.00  0.76259    
    70.00  0.74537    
    71.00  0.72867    
    72.00  0.71245    
    73.00  0.69674    
    74.00  0.68153    
    75.00  0.66683    
    76.00  0.65261    
    77.00  0.63889    
    78.00  0.62566    
    79.00  0.61292    
    80.00  0.60066    
    81.00  0.58888    
    82.00  0.57757    
    83.00  0.56674    
    84.00  0.55636    
    85.00  0.54645    
    86.00  0.53699    
    87.00  0.52797    
    88.00  0.51939    
    89.00  0.51124    
    90.00  0.50351    
    91.00  0.49620    
    92.00  0.48930    
    93.00  0.48280    
    94.00  0.47669    
    95.00  0.47096    
    96.00  0.46561    
    97.00  0.46062    
    98.00  0.45599    
    99.00  0.45171    
   100.00  0.44777    
   101.00  0.44415    
   102.00  0.44086    
   103.00  0.43788    
   104.00  0.43520    
   105.00  0.43282    
   106.00  0.43072    
   107.00  0.42889    
   108.00  0.42733    
   109.00  0.42603    
   110.00  0.42498    
   111.00  0.42416    
   112.00  0.42357    
   113.00  0.42320    
   114.00  0.42305    
   115.00  0.42310    
   116.00  0.42334    
   117.00  0.42376    
   118.00  0.42436    
   119.00  0.42514    
   120.00  0.42607    
   121.00  0.42715    
   122.00  0.42837    
   123.00  0.42973    
   124.00  0.43122    
   125.00  0.43283    
   126.00  0.43455    
   127.00  0.43637    
   128.00  0.43830    
   129.00  0.44031    
   130.00  0.44240    
   131.00  0.44457    
   132.00  0.44681    
   133.00  0.44911    
   134.00  0.45147    
   135.00  0.45387    
   136.00  0.45632    
   137.00  0.45881    
   138.00  0.46132    
   139.00  0.46387    
   140.00  0.46644    
   141.00  0.46902    
   142.00  0.47162    
   143.00  0.47422    
   144.00  0.47683    
   145.00  0.47945    
   146.00  0.48206    
   147.00  0.48467    
   148.00  0.48728    
   149.00  0.48988    
   150.00  0.49246    
   151.00  0.49503    
   152.00  0.49757    
   153.00  0.50009    
   154.00  0.50256    
   155.00  0.50498    
   156.00  0.50732    
   157.00  0.50959    
   158.00  0.51175    
   159.00  0.51379    
   160.00  0.51568    
   161.00  0.51743    
   162.00  0.51902    
   163.00  0.52045    
   164.00  0.52173    
   165.00  0.52289    
   166.00  0.52394    
   167.00  0.52493    
   168.00  0.52588    
   169.00  0.52685    
   170.00  0.52785    
   171.00  0.52891    
   172.00  0.53003    
   173.00  0.53120    
   174.00  0.53239    
   175.00  0.53355    
   176.00  0.53462    
   177.00  0.53555    
   178.00  0.53626    
   179.00  0.53671    
   180.00  0.53687    
 |--------|------------|
0.400000     micron = Wavelength
0.373443     = Extinction efficiency (Q)
0.154766     = Scattering efficiency (Qs)
0.218677     = Absorption efficiency (Qa)
 56.4797     = Lidar ratio
0.513787E-02 micron^2 = <b> = Average surface area per particle
0.191870E-02 microns^2 = Extinction cross section (C)
0.795169E-03 microns^2 = Scattering cross section (Cs)
0.112353E-02 microns^2 = Absorption cross section (Ca)
 |----------------------------------------------------|
 | COMMENTAIRES:                                      |
 |----------------------------------------------------|
 |   -Cross section / <b> should = efficiency         |
 |    is independant of the normalisation of dN/dx    |
 |   -The integral of the phase fct / 4 pi over all   |
 |    directions (solid angle) = 1.                   |
 |   -The volume coefficient (k) is equal to C * N    |
 |      = cross section * Number density              |
 |      typical units: [um^2]*[particles/cm^3] =      |
 |      [10^-3 km-1]                                  |
 |      N = M/(d*4/3*pi*r^3) where d is the density   |
 |      of particle, M is the mass per unit volume    |
 |      and 4/3*pi*r^3 is the average volume  of a    |
 |      particle.                                     |
 |      typical units:  M -> [ug/m^3], d -> [g/cm^3]  |
 |                      r -> [um]                     |
 |      Lidar ratio= 4 pi Qe / phase_fct(180)*Qs      |
 |----------------------------------------------------|
