 |--------|------------|
 | ANGLE  |  PHASE FCT |
 |--------|------------|
     0.00   77.827    
     1.00   76.037    
     2.00   71.018    
     3.00   63.678    
     4.00   55.135    
     5.00   46.395    
     6.00   38.176    
     7.00   30.885    
     8.00   24.690    
     9.00   19.593    
    10.00   15.501    
    11.00   12.276    
    12.00   9.7691    
    13.00   7.8405    
    14.00   6.3675    
    15.00   5.2472    
    16.00   4.3966    
    17.00   3.7504    
    18.00   3.2580    
    19.00   2.8805    
    20.00   2.5888    
    21.00   2.3610    
    22.00   2.1808    
    23.00   2.0362    
    24.00   1.9182    
    25.00   1.8203    
    26.00   1.7375    
    27.00   1.6663    
    28.00   1.6041    
    29.00   1.5489    
    30.00   1.4991    
    31.00   1.4538    
    32.00   1.4120    
    33.00   1.3731    
    34.00   1.3366    
    35.00   1.3023    
    36.00   1.2696    
    37.00   1.2385    
    38.00   1.2087    
    39.00   1.1800    
    40.00   1.1524    
    41.00   1.1257    
    42.00   1.0998    
    43.00   1.0748    
    44.00   1.0504    
    45.00   1.0267    
    46.00   1.0036    
    47.00  0.98114    
    48.00  0.95922    
    49.00  0.93782    
    50.00  0.91693    
    51.00  0.89652    
    52.00  0.87660    
    53.00  0.85714    
    54.00  0.83813    
    55.00  0.81956    
    56.00  0.80143    
    57.00  0.78373    
    58.00  0.76645    
    59.00  0.74959    
    60.00  0.73315    
    61.00  0.71713    
    62.00  0.70151    
    63.00  0.68630    
    64.00  0.67150    
    65.00  0.65711    
    66.00  0.64311    
    67.00  0.62952    
    68.00  0.61633    
    69.00  0.60354    
    70.00  0.59114    
    71.00  0.57914    
    72.00  0.56753    
    73.00  0.55631    
    74.00  0.54548    
    75.00  0.53504    
    76.00  0.52498    
    77.00  0.51530    
    78.00  0.50599    
    79.00  0.49707    
    80.00  0.48851    
    81.00  0.48032    
    82.00  0.47249    
    83.00  0.46503    
    84.00  0.45792    
    85.00  0.45116    
    86.00  0.44475    
    87.00  0.43867    
    88.00  0.43294    
    89.00  0.42754    
    90.00  0.42246    
    91.00  0.41770    
    92.00  0.41326    
    93.00  0.40912    
    94.00  0.40529    
    95.00  0.40176    
    96.00  0.39852    
    97.00  0.39556    
    98.00  0.39288    
    99.00  0.39047    
   100.00  0.38833    
   101.00  0.38645    
   102.00  0.38481    
   103.00  0.38343    
   104.00  0.38228    
   105.00  0.38136    
   106.00  0.38066    
   107.00  0.38018    
   108.00  0.37992    
   109.00  0.37985    
   110.00  0.37998    
   111.00  0.38030    
   112.00  0.38080    
   113.00  0.38148    
   114.00  0.38233    
   115.00  0.38333    
   116.00  0.38449    
   117.00  0.38580    
   118.00  0.38724    
   119.00  0.38882    
   120.00  0.39053    
   121.00  0.39236    
   122.00  0.39429    
   123.00  0.39634    
   124.00  0.39849    
   125.00  0.40072    
   126.00  0.40305    
   127.00  0.40546    
   128.00  0.40794    
   129.00  0.41049    
   130.00  0.41311    
   131.00  0.41578    
   132.00  0.41851    
   133.00  0.42128    
   134.00  0.42409    
   135.00  0.42695    
   136.00  0.42983    
   137.00  0.43275    
   138.00  0.43569    
   139.00  0.43865    
   140.00  0.44164    
   141.00  0.44464    
   142.00  0.44766    
   143.00  0.45070    
   144.00  0.45375    
   145.00  0.45683    
   146.00  0.45991    
   147.00  0.46301    
   148.00  0.46613    
   149.00  0.46925    
   150.00  0.47238    
   151.00  0.47551    
   152.00  0.47862    
   153.00  0.48169    
   154.00  0.48470    
   155.00  0.48762    
   156.00  0.49042    
   157.00  0.49305    
   158.00  0.49549    
   159.00  0.49768    
   160.00  0.49961    
   161.00  0.50124    
   162.00  0.50256    
   163.00  0.50360    
   164.00  0.50438    
   165.00  0.50495    
   166.00  0.50539    
   167.00  0.50578    
   168.00  0.50623    
   169.00  0.50682    
   170.00  0.50763    
   171.00  0.50871    
   172.00  0.51007    
   173.00  0.51168    
   174.00  0.51347    
   175.00  0.51535    
   176.00  0.51717    
   177.00  0.51878    
   178.00  0.52005    
   179.00  0.52087    
   180.00  0.52115    
 |--------|------------|
0.580000     micron = Wavelength
0.276257     = Extinction efficiency (Q)
0.101633     = Scattering efficiency (Qs)
0.174624     = Absorption efficiency (Qa)
 65.5429     = Lidar ratio
0.730527E-02 micron^2 = <b> = Average surface area per particle
0.201813E-02 microns^2 = Extinction cross section (C)
0.742456E-03 microns^2 = Scattering cross section (Cs)
0.127568E-02 microns^2 = Absorption cross section (Ca)
 |----------------------------------------------------|
 | COMMENTAIRES:                                      |
 |----------------------------------------------------|
 |   -Cross section / <b> should = efficiency         |
 |    is independant of the normalisation of dN/dx    |
 |   -The integral of the phase fct / 4 pi over all   |
 |    directions (solid angle) = 1.                   |
 |   -The volume coefficient (k) is equal to C * N    |
 |      = cross section * Number density              |
 |      typical units: [um^2]*[particles/cm^3] =      |
 |      [10^-3 km-1]                                  |
 |      N = M/(d*4/3*pi*r^3) where d is the density   |
 |      of particle, M is the mass per unit volume    |
 |      and 4/3*pi*r^3 is the average volume  of a    |
 |      particle.                                     |
 |      typical units:  M -> [ug/m^3], d -> [g/cm^3]  |
 |                      r -> [um]                     |
 |      Lidar ratio= 4 pi Qe / phase_fct(180)*Qs      |
 |----------------------------------------------------|
