 |--------|------------|
 | ANGLE  |  PHASE FCT |
 |--------|------------|
     0.00   76.598    
     1.00   75.085    
     2.00   70.806    
     3.00   64.437    
     4.00   56.846    
     5.00   48.857    
     6.00   41.108    
     7.00   34.013    
     8.00   27.787    
     9.00   22.498    
    10.00   18.116    
    11.00   14.556    
    12.00   11.706    
    13.00   9.4506    
    14.00   7.6816    
    15.00   6.3026    
    16.00   5.2319    
    17.00   4.4021    
    18.00   3.7590    
    19.00   3.2597    
    20.00   2.8703    
    21.00   2.5648    
    22.00   2.3233    
    23.00   2.1303    
    24.00   1.9745    
    25.00   1.8468    
    26.00   1.7407    
    27.00   1.6512    
    28.00   1.5745    
    29.00   1.5078    
    30.00   1.4490    
    31.00   1.3963    
    32.00   1.3487    
    33.00   1.3051    
    34.00   1.2648    
    35.00   1.2273    
    36.00   1.1921    
    37.00   1.1590    
    38.00   1.1275    
    39.00   1.0975    
    40.00   1.0689    
    41.00   1.0415    
    42.00   1.0151    
    43.00  0.98974    
    44.00  0.96524    
    45.00  0.94158    
    46.00  0.91869    
    47.00  0.89651    
    48.00  0.87501    
    49.00  0.85416    
    50.00  0.83391    
    51.00  0.81425    
    52.00  0.79514    
    53.00  0.77657    
    54.00  0.75852    
    55.00  0.74097    
    56.00  0.72390    
    57.00  0.70732    
    58.00  0.69119    
    59.00  0.67551    
    60.00  0.66028    
    61.00  0.64549    
    62.00  0.63112    
    63.00  0.61718    
    64.00  0.60364    
    65.00  0.59052    
    66.00  0.57780    
    67.00  0.56548    
    68.00  0.55356    
    69.00  0.54201    
    70.00  0.53086    
    71.00  0.52009    
    72.00  0.50969    
    73.00  0.49967    
    74.00  0.49001    
    75.00  0.48072    
    76.00  0.47178    
    77.00  0.46320    
    78.00  0.45497    
    79.00  0.44709    
    80.00  0.43955    
    81.00  0.43235    
    82.00  0.42548    
    83.00  0.41895    
    84.00  0.41273    
    85.00  0.40684    
    86.00  0.40126    
    87.00  0.39599    
    88.00  0.39103    
    89.00  0.38636    
    90.00  0.38199    
    91.00  0.37792    
    92.00  0.37412    
    93.00  0.37060    
    94.00  0.36736    
    95.00  0.36439    
    96.00  0.36167    
    97.00  0.35922    
    98.00  0.35701    
    99.00  0.35505    
   100.00  0.35332    
   101.00  0.35183    
   102.00  0.35056    
   103.00  0.34952    
   104.00  0.34869    
   105.00  0.34806    
   106.00  0.34764    
   107.00  0.34741    
   108.00  0.34738    
   109.00  0.34752    
   110.00  0.34784    
   111.00  0.34834    
   112.00  0.34899    
   113.00  0.34980    
   114.00  0.35077    
   115.00  0.35188    
   116.00  0.35313    
   117.00  0.35451    
   118.00  0.35602    
   119.00  0.35765    
   120.00  0.35939    
   121.00  0.36125    
   122.00  0.36320    
   123.00  0.36526    
   124.00  0.36740    
   125.00  0.36963    
   126.00  0.37194    
   127.00  0.37432    
   128.00  0.37678    
   129.00  0.37930    
   130.00  0.38187    
   131.00  0.38451    
   132.00  0.38719    
   133.00  0.38992    
   134.00  0.39269    
   135.00  0.39550    
   136.00  0.39835    
   137.00  0.40122    
   138.00  0.40414    
   139.00  0.40708    
   140.00  0.41005    
   141.00  0.41305    
   142.00  0.41607    
   143.00  0.41913    
   144.00  0.42222    
   145.00  0.42534    
   146.00  0.42849    
   147.00  0.43166    
   148.00  0.43486    
   149.00  0.43809    
   150.00  0.44131    
   151.00  0.44454    
   152.00  0.44774    
   153.00  0.45088    
   154.00  0.45395    
   155.00  0.45688    
   156.00  0.45966    
   157.00  0.46221    
   158.00  0.46451    
   159.00  0.46651    
   160.00  0.46817    
   161.00  0.46948    
   162.00  0.47043    
   163.00  0.47105    
   164.00  0.47139    
   165.00  0.47153    
   166.00  0.47156    
   167.00  0.47159    
   168.00  0.47174    
   169.00  0.47213    
   170.00  0.47283    
   171.00  0.47390    
   172.00  0.47535    
   173.00  0.47714    
   174.00  0.47919    
   175.00  0.48134    
   176.00  0.48344    
   177.00  0.48532    
   178.00  0.48680    
   179.00  0.48775    
   180.00  0.48808    
 |--------|------------|
0.630000     micron = Wavelength
0.250319     = Extinction efficiency (Q)
0.889588E-01 = Scattering efficiency (Qs)
0.161360     = Absorption efficiency (Qa)
 72.4473     = Lidar ratio
0.730523E-02 micron^2 = <b> = Average surface area per particle
0.182864E-02 microns^2 = Extinction cross section (C)
0.649865E-03 microns^2 = Scattering cross section (Cs)
0.117877E-02 microns^2 = Absorption cross section (Ca)
 |----------------------------------------------------|
 | COMMENTAIRES:                                      |
 |----------------------------------------------------|
 |   -Cross section / <b> should = efficiency         |
 |    is independant of the normalisation of dN/dx    |
 |   -The integral of the phase fct / 4 pi over all   |
 |    directions (solid angle) = 1.                   |
 |   -The volume coefficient (k) is equal to C * N    |
 |      = cross section * Number density              |
 |      typical units: [um^2]*[particles/cm^3] =      |
 |      [10^-3 km-1]                                  |
 |      N = M/(d*4/3*pi*r^3) where d is the density   |
 |      of particle, M is the mass per unit volume    |
 |      and 4/3*pi*r^3 is the average volume  of a    |
 |      particle.                                     |
 |      typical units:  M -> [ug/m^3], d -> [g/cm^3]  |
 |                      r -> [um]                     |
 |      Lidar ratio= 4 pi Qe / phase_fct(180)*Qs      |
 |----------------------------------------------------|
