 |--------|------------|
 | ANGLE  |  PHASE FCT |
 |--------|------------|
     0.00   59.417    
     1.00   58.722    
     2.00   56.708    
     3.00   53.576    
     4.00   49.608    
     5.00   45.114    
     6.00   40.384    
     7.00   35.663    
     8.00   31.138    
     9.00   26.932    
    10.00   23.119    
    11.00   19.732    
    12.00   16.771    
    13.00   14.219    
    14.00   12.042    
    15.00   10.202    
    16.00   8.6584    
    17.00   7.3705    
    18.00   6.3008    
    19.00   5.4152    
    20.00   4.6834    
    21.00   4.0794    
    22.00   3.5806    
    23.00   3.1682    
    24.00   2.8266    
    25.00   2.5425    
    26.00   2.3053    
    27.00   2.1061    
    28.00   1.9379    
    29.00   1.7947    
    30.00   1.6719    
    31.00   1.5658    
    32.00   1.4732    
    33.00   1.3917    
    34.00   1.3193    
    35.00   1.2546    
    36.00   1.1961    
    37.00   1.1430    
    38.00   1.0943    
    39.00   1.0494    
    40.00   1.0078    
    41.00  0.96901    
    42.00  0.93273    
    43.00  0.89865    
    44.00  0.86654    
    45.00  0.83617    
    46.00  0.80741    
    47.00  0.78009    
    48.00  0.75412    
    49.00  0.72938    
    50.00  0.70578    
    51.00  0.68325    
    52.00  0.66173    
    53.00  0.64114    
    54.00  0.62143    
    55.00  0.60257    
    56.00  0.58450    
    57.00  0.56719    
    58.00  0.55060    
    59.00  0.53469    
    60.00  0.51943    
    61.00  0.50481    
    62.00  0.49077    
    63.00  0.47732    
    64.00  0.46441    
    65.00  0.45204    
    66.00  0.44017    
    67.00  0.42880    
    68.00  0.41789    
    69.00  0.40745    
    70.00  0.39744    
    71.00  0.38785    
    72.00  0.37868    
    73.00  0.36990    
    74.00  0.36151    
    75.00  0.35349    
    76.00  0.34582    
    77.00  0.33851    
    78.00  0.33154    
    79.00  0.32489    
    80.00  0.31857    
    81.00  0.31255    
    82.00  0.30684    
    83.00  0.30141    
    84.00  0.29627    
    85.00  0.29141    
    86.00  0.28682    
    87.00  0.28249    
    88.00  0.27841    
    89.00  0.27458    
    90.00  0.27099    
    91.00  0.26764    
    92.00  0.26451    
    93.00  0.26161    
    94.00  0.25892    
    95.00  0.25644    
    96.00  0.25416    
    97.00  0.25208    
    98.00  0.25020    
    99.00  0.24850    
   100.00  0.24698    
   101.00  0.24564    
   102.00  0.24447    
   103.00  0.24347    
   104.00  0.24263    
   105.00  0.24195    
   106.00  0.24141    
   107.00  0.24103    
   108.00  0.24078    
   109.00  0.24067    
   110.00  0.24070    
   111.00  0.24085    
   112.00  0.24113    
   113.00  0.24152    
   114.00  0.24203    
   115.00  0.24266    
   116.00  0.24338    
   117.00  0.24422    
   118.00  0.24515    
   119.00  0.24617    
   120.00  0.24729    
   121.00  0.24849    
   122.00  0.24978    
   123.00  0.25115    
   124.00  0.25260    
   125.00  0.25413    
   126.00  0.25573    
   127.00  0.25740    
   128.00  0.25914    
   129.00  0.26095    
   130.00  0.26282    
   131.00  0.26476    
   132.00  0.26677    
   133.00  0.26884    
   134.00  0.27098    
   135.00  0.27319    
   136.00  0.27546    
   137.00  0.27780    
   138.00  0.28022    
   139.00  0.28270    
   140.00  0.28526    
   141.00  0.28789    
   142.00  0.29059    
   143.00  0.29336    
   144.00  0.29620    
   145.00  0.29909    
   146.00  0.30203    
   147.00  0.30499    
   148.00  0.30796    
   149.00  0.31091    
   150.00  0.31380    
   151.00  0.31660    
   152.00  0.31927    
   153.00  0.32174    
   154.00  0.32397    
   155.00  0.32591    
   156.00  0.32750    
   157.00  0.32870    
   158.00  0.32948    
   159.00  0.32982    
   160.00  0.32973    
   161.00  0.32924    
   162.00  0.32841    
   163.00  0.32732    
   164.00  0.32610    
   165.00  0.32488    
   166.00  0.32380    
   167.00  0.32300    
   168.00  0.32262    
   169.00  0.32278    
   170.00  0.32352    
   171.00  0.32487    
   172.00  0.32679    
   173.00  0.32918    
   174.00  0.33189    
   175.00  0.33471    
   176.00  0.33745    
   177.00  0.33986    
   178.00  0.34175    
   179.00  0.34295    
   180.00  0.34337    
 |--------|------------|
0.680000     micron = Wavelength
0.196632     = Extinction efficiency (Q)
0.690308E-01 = Scattering efficiency (Qs)
0.127601     = Absorption efficiency (Qa)
 104.247     = Lidar ratio
0.513788E-02 micron^2 = <b> = Average surface area per particle
0.101027E-02 microns^2 = Extinction cross section (C)
0.354672E-03 microns^2 = Scattering cross section (Cs)
0.655599E-03 microns^2 = Absorption cross section (Ca)
 |----------------------------------------------------|
 | COMMENTAIRES:                                      |
 |----------------------------------------------------|
 |   -Cross section / <b> should = efficiency         |
 |    is independant of the normalisation of dN/dx    |
 |   -The integral of the phase fct / 4 pi over all   |
 |    directions (solid angle) = 1.                   |
 |   -The volume coefficient (k) is equal to C * N    |
 |      = cross section * Number density              |
 |      typical units: [um^2]*[particles/cm^3] =      |
 |      [10^-3 km-1]                                  |
 |      N = M/(d*4/3*pi*r^3) where d is the density   |
 |      of particle, M is the mass per unit volume    |
 |      and 4/3*pi*r^3 is the average volume  of a    |
 |      particle.                                     |
 |      typical units:  M -> [ug/m^3], d -> [g/cm^3]  |
 |                      r -> [um]                     |
 |      Lidar ratio= 4 pi Qe / phase_fct(180)*Qs      |
 |----------------------------------------------------|
