 |--------|------------|
 | ANGLE  |  PHASE FCT |
 |--------|------------|
     0.00   137.40    
     1.00   125.88    
     2.00   97.318    
     3.00   64.807    
     4.00   38.999    
     5.00   22.982    
     6.00   14.350    
     7.00   9.7699    
     8.00   7.2505    
     9.00   5.8747    
    10.00   5.1059    
    11.00   4.6199    
    12.00   4.2873    
    13.00   4.0558    
    14.00   3.8790    
    15.00   3.7311    
    16.00   3.6080    
    17.00   3.5037    
    18.00   3.4092    
    19.00   3.3225    
    20.00   3.2436    
    21.00   3.1697    
    22.00   3.0986    
    23.00   3.0305    
    24.00   2.9651    
    25.00   2.9009    
    26.00   2.8378    
    27.00   2.7761    
    28.00   2.7152    
    29.00   2.6548    
    30.00   2.5950    
    31.00   2.5358    
    32.00   2.4771    
    33.00   2.4187    
    34.00   2.3609    
    35.00   2.3037    
    36.00   2.2468    
    37.00   2.1905    
    38.00   2.1347    
    39.00   2.0796    
    40.00   2.0250    
    41.00   1.9712    
    42.00   1.9180    
    43.00   1.8655    
    44.00   1.8139    
    45.00   1.7630    
    46.00   1.7129    
    47.00   1.6638    
    48.00   1.6154    
    49.00   1.5681    
    50.00   1.5216    
    51.00   1.4761    
    52.00   1.4316    
    53.00   1.3880    
    54.00   1.3455    
    55.00   1.3039    
    56.00   1.2634    
    57.00   1.2239    
    58.00   1.1854    
    59.00   1.1479    
    60.00   1.1114    
    61.00   1.0760    
    62.00   1.0416    
    63.00   1.0082    
    64.00  0.97583    
    65.00  0.94443    
    66.00  0.91402    
    67.00  0.88458    
    68.00  0.85610    
    69.00  0.82856    
    70.00  0.80196    
    71.00  0.77628    
    72.00  0.75149    
    73.00  0.72759    
    74.00  0.70456    
    75.00  0.68237    
    76.00  0.66101    
    77.00  0.64047    
    78.00  0.62071    
    79.00  0.60174    
    80.00  0.58351    
    81.00  0.56602    
    82.00  0.54924    
    83.00  0.53316    
    84.00  0.51776    
    85.00  0.50302    
    86.00  0.48891    
    87.00  0.47542    
    88.00  0.46254    
    89.00  0.45023    
    90.00  0.43849    
    91.00  0.42730    
    92.00  0.41663    
    93.00  0.40647    
    94.00  0.39681    
    95.00  0.38762    
    96.00  0.37890    
    97.00  0.37062    
    98.00  0.36277    
    99.00  0.35533    
   100.00  0.34829    
   101.00  0.34163    
   102.00  0.33534    
   103.00  0.32941    
   104.00  0.32383    
   105.00  0.31857    
   106.00  0.31363    
   107.00  0.30900    
   108.00  0.30465    
   109.00  0.30059    
   110.00  0.29680    
   111.00  0.29327    
   112.00  0.28999    
   113.00  0.28695    
   114.00  0.28414    
   115.00  0.28155    
   116.00  0.27916    
   117.00  0.27698    
   118.00  0.27499    
   119.00  0.27319    
   120.00  0.27156    
   121.00  0.27010    
   122.00  0.26880    
   123.00  0.26766    
   124.00  0.26666    
   125.00  0.26580    
   126.00  0.26507    
   127.00  0.26447    
   128.00  0.26399    
   129.00  0.26362    
   130.00  0.26336    
   131.00  0.26321    
   132.00  0.26315    
   133.00  0.26317    
   134.00  0.26329    
   135.00  0.26349    
   136.00  0.26376    
   137.00  0.26410    
   138.00  0.26450    
   139.00  0.26497    
   140.00  0.26549    
   141.00  0.26607    
   142.00  0.26669    
   143.00  0.26735    
   144.00  0.26806    
   145.00  0.26880    
   146.00  0.26956    
   147.00  0.27036    
   148.00  0.27118    
   149.00  0.27201    
   150.00  0.27286    
   151.00  0.27373    
   152.00  0.27460    
   153.00  0.27547    
   154.00  0.27635    
   155.00  0.27723    
   156.00  0.27810    
   157.00  0.27897    
   158.00  0.27983    
   159.00  0.28067    
   160.00  0.28149    
   161.00  0.28230    
   162.00  0.28308    
   163.00  0.28383    
   164.00  0.28455    
   165.00  0.28523    
   166.00  0.28588    
   167.00  0.28648    
   168.00  0.28704    
   169.00  0.28756    
   170.00  0.28805    
   171.00  0.28849    
   172.00  0.28891    
   173.00  0.28928    
   174.00  0.28962    
   175.00  0.28992    
   176.00  0.29018    
   177.00  0.29039    
   178.00  0.29055    
   179.00  0.29064    
   180.00  0.29068    
 |--------|------------|
0.510000     micron = Wavelength
0.743733     = Extinction efficiency (Q)
0.392630     = Scattering efficiency (Qs)
0.351103     = Absorption efficiency (Qa)
 81.8906     = Lidar ratio
0.199642E-01 micron^2 = <b> = Average surface area per particle
0.148481E-01 microns^2 = Extinction cross section (C)
0.783856E-02 microns^2 = Scattering cross section (Cs)
0.700950E-02 microns^2 = Absorption cross section (Ca)
 |----------------------------------------------------|
 | COMMENTAIRES:                                      |
 |----------------------------------------------------|
 |   -Cross section / <b> should = efficiency         |
 |    is independant of the normalisation of dN/dx    |
 |   -The integral of the phase fct / 4 pi over all   |
 |    directions (solid angle) = 1.                   |
 |   -The volume coefficient (k) is equal to C * N    |
 |      = cross section * Number density              |
 |      typical units: [um^2]*[particles/cm^3] =      |
 |      [10^-3 km-1]                                  |
 |      N = M/(d*4/3*pi*r^3) where d is the density   |
 |      of particle, M is the mass per unit volume    |
 |      and 4/3*pi*r^3 is the average volume  of a    |
 |      particle.                                     |
 |      typical units:  M -> [ug/m^3], d -> [g/cm^3]  |
 |                      r -> [um]                     |
 |      Lidar ratio= 4 pi Qe / phase_fct(180)*Qs      |
 |----------------------------------------------------|
