 |--------|------------|
 | ANGLE  |  PHASE FCT |
 |--------|------------|
     0.00   122.44    
     1.00   117.13    
     2.00   102.93    
     3.00   84.052    
     4.00   64.853    
     5.00   48.149    
     6.00   34.942    
     7.00   25.091    
     8.00   18.020    
     9.00   13.083    
    10.00   9.6945    
    11.00   7.3865    
    12.00   5.8167    
    13.00   4.7451    
    14.00   4.0051    
    15.00   3.4849    
    16.00   3.1112    
    17.00   2.8358    
    18.00   2.6264    
    19.00   2.4625    
    20.00   2.3304    
    21.00   2.2211    
    22.00   2.1284    
    23.00   2.0481    
    24.00   1.9773    
    25.00   1.9141    
    26.00   1.8568    
    27.00   1.8043    
    28.00   1.7559    
    29.00   1.7107    
    30.00   1.6682    
    31.00   1.6282    
    32.00   1.5901    
    33.00   1.5536    
    34.00   1.5186    
    35.00   1.4849    
    36.00   1.4523    
    37.00   1.4206    
    38.00   1.3898    
    39.00   1.3598    
    40.00   1.3304    
    41.00   1.3016    
    42.00   1.2735    
    43.00   1.2458    
    44.00   1.2187    
    45.00   1.1920    
    46.00   1.1658    
    47.00   1.1400    
    48.00   1.1147    
    49.00   1.0898    
    50.00   1.0653    
    51.00   1.0413    
    52.00   1.0177    
    53.00  0.99444    
    54.00  0.97166    
    55.00  0.94929    
    56.00  0.92736    
    57.00  0.90586    
    58.00  0.88479    
    59.00  0.86417    
    60.00  0.84398    
    61.00  0.82425    
    62.00  0.80497    
    63.00  0.78614    
    64.00  0.76776    
    65.00  0.74985    
    66.00  0.73239    
    67.00  0.71540    
    68.00  0.69887    
    69.00  0.68281    
    70.00  0.66721    
    71.00  0.65207    
    72.00  0.63740    
    73.00  0.62319    
    74.00  0.60944    
    75.00  0.59615    
    76.00  0.58332    
    77.00  0.57094    
    78.00  0.55901    
    79.00  0.54752    
    80.00  0.53648    
    81.00  0.52587    
    82.00  0.51570    
    83.00  0.50595    
    84.00  0.49663    
    85.00  0.48771    
    86.00  0.47921    
    87.00  0.47111    
    88.00  0.46341    
    89.00  0.45610    
    90.00  0.44917    
    91.00  0.44261    
    92.00  0.43642    
    93.00  0.43059    
    94.00  0.42511    
    95.00  0.41998    
    96.00  0.41518    
    97.00  0.41071    
    98.00  0.40656    
    99.00  0.40272    
   100.00  0.39918    
   101.00  0.39594    
   102.00  0.39299    
   103.00  0.39031    
   104.00  0.38790    
   105.00  0.38575    
   106.00  0.38386    
   107.00  0.38221    
   108.00  0.38079    
   109.00  0.37960    
   110.00  0.37863    
   111.00  0.37788    
   112.00  0.37732    
   113.00  0.37696    
   114.00  0.37679    
   115.00  0.37679    
   116.00  0.37697    
   117.00  0.37731    
   118.00  0.37780    
   119.00  0.37844    
   120.00  0.37923    
   121.00  0.38014    
   122.00  0.38118    
   123.00  0.38235    
   124.00  0.38362    
   125.00  0.38500    
   126.00  0.38647    
   127.00  0.38804    
   128.00  0.38969    
   129.00  0.39142    
   130.00  0.39322    
   131.00  0.39509    
   132.00  0.39702    
   133.00  0.39900    
   134.00  0.40103    
   135.00  0.40311    
   136.00  0.40522    
   137.00  0.40736    
   138.00  0.40953    
   139.00  0.41172    
   140.00  0.41393    
   141.00  0.41615    
   142.00  0.41838    
   143.00  0.42061    
   144.00  0.42284    
   145.00  0.42507    
   146.00  0.42729    
   147.00  0.42950    
   148.00  0.43171    
   149.00  0.43390    
   150.00  0.43608    
   151.00  0.43825    
   152.00  0.44041    
   153.00  0.44255    
   154.00  0.44468    
   155.00  0.44678    
   156.00  0.44884    
   157.00  0.45087    
   158.00  0.45283    
   159.00  0.45472    
   160.00  0.45651    
   161.00  0.45818    
   162.00  0.45970    
   163.00  0.46107    
   164.00  0.46227    
   165.00  0.46330    
   166.00  0.46419    
   167.00  0.46495    
   168.00  0.46563    
   169.00  0.46628    
   170.00  0.46693    
   171.00  0.46764    
   172.00  0.46841    
   173.00  0.46927    
   174.00  0.47019    
   175.00  0.47114    
   176.00  0.47206    
   177.00  0.47288    
   178.00  0.47353    
   179.00  0.47395    
   180.00  0.47410    
 |--------|------------|
0.670000     micron = Wavelength
0.386162     = Extinction efficiency (Q)
0.161856     = Scattering efficiency (Qs)
0.224306     = Absorption efficiency (Qa)
 63.2390     = Lidar ratio
0.151669E-01 micron^2 = <b> = Average surface area per particle
0.585688E-02 microns^2 = Extinction cross section (C)
0.245485E-02 microns^2 = Scattering cross section (Cs)
0.340203E-02 microns^2 = Absorption cross section (Ca)
 |----------------------------------------------------|
 | COMMENTAIRES:                                      |
 |----------------------------------------------------|
 |   -Cross section / <b> should = efficiency         |
 |    is independant of the normalisation of dN/dx    |
 |   -The integral of the phase fct / 4 pi over all   |
 |    directions (solid angle) = 1.                   |
 |   -The volume coefficient (k) is equal to C * N    |
 |      = cross section * Number density              |
 |      typical units: [um^2]*[particles/cm^3] =      |
 |      [10^-3 km-1]                                  |
 |      N = M/(d*4/3*pi*r^3) where d is the density   |
 |      of particle, M is the mass per unit volume    |
 |      and 4/3*pi*r^3 is the average volume  of a    |
 |      particle.                                     |
 |      typical units:  M -> [ug/m^3], d -> [g/cm^3]  |
 |                      r -> [um]                     |
 |      Lidar ratio= 4 pi Qe / phase_fct(180)*Qs      |
 |----------------------------------------------------|
