 |--------|------------|
 | ANGLE  |  PHASE FCT |
 |--------|------------|
     0.00   48.312    
     1.00   47.877    
     2.00   46.605    
     3.00   44.599    
     4.00   42.001    
     5.00   38.980    
     6.00   35.705    
     7.00   32.329    
     8.00   28.978    
     9.00   25.754    
    10.00   22.724    
    11.00   19.933    
    12.00   17.403    
    13.00   15.142    
    14.00   13.144    
    15.00   11.395    
    16.00   9.8756    
    17.00   8.5648    
    18.00   7.4398    
    19.00   6.4783    
    20.00   5.6594    
    21.00   4.9634    
    22.00   4.3729    
    23.00   3.8722    
    24.00   3.4475    
    25.00   3.0870    
    26.00   2.7805    
    27.00   2.5193    
    28.00   2.2959    
    29.00   2.1042    
    30.00   1.9390    
    31.00   1.7958    
    32.00   1.6711    
    33.00   1.5618    
    34.00   1.4655    
    35.00   1.3800    
    36.00   1.3037    
    37.00   1.2351    
    38.00   1.1731    
    39.00   1.1167    
    40.00   1.0651    
    41.00   1.0176    
    42.00  0.97381    
    43.00  0.93313    
    44.00  0.89522    
    45.00  0.85977    
    46.00  0.82652    
    47.00  0.79523    
    48.00  0.76572    
    49.00  0.73782    
    50.00  0.71142    
    51.00  0.68636    
    52.00  0.66256    
    53.00  0.63993    
    54.00  0.61838    
    55.00  0.59785    
    56.00  0.57827    
    57.00  0.55959    
    58.00  0.54175    
    59.00  0.52471    
    60.00  0.50843    
    61.00  0.49287    
    62.00  0.47800    
    63.00  0.46378    
    64.00  0.45018    
    65.00  0.43717    
    66.00  0.42473    
    67.00  0.41283    
    68.00  0.40146    
    69.00  0.39058    
    70.00  0.38018    
    71.00  0.37024    
    72.00  0.36074    
    73.00  0.35168    
    74.00  0.34301    
    75.00  0.33475    
    76.00  0.32686    
    77.00  0.31934    
    78.00  0.31217    
    79.00  0.30534    
    80.00  0.29884    
    81.00  0.29266    
    82.00  0.28679    
    83.00  0.28122    
    84.00  0.27593    
    85.00  0.27092    
    86.00  0.26619    
    87.00  0.26171    
    88.00  0.25749    
    89.00  0.25351    
    90.00  0.24977    
    91.00  0.24626    
    92.00  0.24297    
    93.00  0.23990    
    94.00  0.23704    
    95.00  0.23438    
    96.00  0.23192    
    97.00  0.22966    
    98.00  0.22757    
    99.00  0.22567    
   100.00  0.22394    
   101.00  0.22238    
   102.00  0.22099    
   103.00  0.21975    
   104.00  0.21867    
   105.00  0.21774    
   106.00  0.21695    
   107.00  0.21630    
   108.00  0.21579    
   109.00  0.21541    
   110.00  0.21515    
   111.00  0.21502    
   112.00  0.21501    
   113.00  0.21511    
   114.00  0.21532    
   115.00  0.21564    
   116.00  0.21607    
   117.00  0.21660    
   118.00  0.21722    
   119.00  0.21795    
   120.00  0.21876    
   121.00  0.21967    
   122.00  0.22066    
   123.00  0.22174    
   124.00  0.22291    
   125.00  0.22416    
   126.00  0.22549    
   127.00  0.22690    
   128.00  0.22840    
   129.00  0.22997    
   130.00  0.23163    
   131.00  0.23336    
   132.00  0.23518    
   133.00  0.23709    
   134.00  0.23907    
   135.00  0.24114    
   136.00  0.24329    
   137.00  0.24553    
   138.00  0.24785    
   139.00  0.25025    
   140.00  0.25273    
   141.00  0.25528    
   142.00  0.25789    
   143.00  0.26055    
   144.00  0.26325    
   145.00  0.26598    
   146.00  0.26869    
   147.00  0.27138    
   148.00  0.27400    
   149.00  0.27652    
   150.00  0.27890    
   151.00  0.28109    
   152.00  0.28304    
   153.00  0.28471    
   154.00  0.28606    
   155.00  0.28705    
   156.00  0.28765    
   157.00  0.28785    
   158.00  0.28764    
   159.00  0.28707    
   160.00  0.28616    
   161.00  0.28499    
   162.00  0.28365    
   163.00  0.28226    
   164.00  0.28094    
   165.00  0.27983    
   166.00  0.27905    
   167.00  0.27873    
   168.00  0.27897    
   169.00  0.27982    
   170.00  0.28130    
   171.00  0.28338    
   172.00  0.28598    
   173.00  0.28896    
   174.00  0.29217    
   175.00  0.29539    
   176.00  0.29841    
   177.00  0.30102    
   178.00  0.30304    
   179.00  0.30431    
   180.00  0.30475    
 |--------|------------|
0.550000     micron = Wavelength
0.180817     = Extinction efficiency (Q)
0.646641E-01 = Scattering efficiency (Qs)
0.116153     = Absorption efficiency (Qa)
 115.304     = Lidar ratio
0.272778E-02 micron^2 = <b> = Average surface area per particle
0.493229E-03 microns^2 = Extinction cross section (C)
0.176389E-03 microns^2 = Scattering cross section (Cs)
0.316840E-03 microns^2 = Absorption cross section (Ca)
 |----------------------------------------------------|
 | COMMENTAIRES:                                      |
 |----------------------------------------------------|
 |   -Cross section / <b> should = efficiency         |
 |    is independant of the normalisation of dN/dx    |
 |   -The integral of the phase fct / 4 pi over all   |
 |    directions (solid angle) = 1.                   |
 |   -The volume coefficient (k) is equal to C * N    |
 |      = cross section * Number density              |
 |      typical units: [um^2]*[particles/cm^3] =      |
 |      [10^-3 km-1]                                  |
 |      N = M/(d*4/3*pi*r^3) where d is the density   |
 |      of particle, M is the mass per unit volume    |
 |      and 4/3*pi*r^3 is the average volume  of a    |
 |      particle.                                     |
 |      typical units:  M -> [ug/m^3], d -> [g/cm^3]  |
 |                      r -> [um]                     |
 |      Lidar ratio= 4 pi Qe / phase_fct(180)*Qs      |
 |----------------------------------------------------|
