 |--------|------------|
 | ANGLE  |  PHASE FCT |
 |--------|------------|
     0.00   50.620    
     1.00   50.094    
     2.00   48.565    
     3.00   46.170    
     4.00   43.101    
     5.00   39.580    
     6.00   35.819    
     7.00   32.005    
     8.00   28.287    
     9.00   24.771    
    10.00   21.528    
    11.00   18.597    
    12.00   15.992    
    13.00   13.707    
    14.00   11.727    
    15.00   10.026    
    16.00   8.5771    
    17.00   7.3506    
    18.00   6.3178    
    19.00   5.4516    
    20.00   4.7276    
    21.00   4.1234    
    22.00   3.6200    
    23.00   3.2005    
    24.00   2.8509    
    25.00   2.5590    
    26.00   2.3147    
    27.00   2.1096    
    28.00   1.9365    
    29.00   1.7899    
    30.00   1.6648    
    31.00   1.5575    
    32.00   1.4647    
    33.00   1.3838    
    34.00   1.3128    
    35.00   1.2499    
    36.00   1.1937    
    37.00   1.1431    
    38.00   1.0972    
    39.00   1.0552    
    40.00   1.0165    
    41.00  0.98068    
    42.00  0.94731    
    43.00  0.91606    
    44.00  0.88664    
    45.00  0.85888    
    46.00  0.83256    
    47.00  0.80754    
    48.00  0.78370    
    49.00  0.76093    
    50.00  0.73915    
    51.00  0.71828    
    52.00  0.69826    
    53.00  0.67904    
    54.00  0.66055    
    55.00  0.64278    
    56.00  0.62567    
    57.00  0.60919    
    58.00  0.59333    
    59.00  0.57804    
    60.00  0.56332    
    61.00  0.54912    
    62.00  0.53544    
    63.00  0.52226    
    64.00  0.50957    
    65.00  0.49733    
    66.00  0.48555    
    67.00  0.47421    
    68.00  0.46329    
    69.00  0.45278    
    70.00  0.44268    
    71.00  0.43297    
    72.00  0.42364    
    73.00  0.41468    
    74.00  0.40609    
    75.00  0.39785    
    76.00  0.38995    
    77.00  0.38239    
    78.00  0.37516    
    79.00  0.36825    
    80.00  0.36166    
    81.00  0.35537    
    82.00  0.34938    
    83.00  0.34369    
    84.00  0.33829    
    85.00  0.33316    
    86.00  0.32832    
    87.00  0.32374    
    88.00  0.31942    
    89.00  0.31536    
    90.00  0.31155    
    91.00  0.30799    
    92.00  0.30467    
    93.00  0.30159    
    94.00  0.29873    
    95.00  0.29609    
    96.00  0.29368    
    97.00  0.29148    
    98.00  0.28948    
    99.00  0.28769    
   100.00  0.28610    
   101.00  0.28470    
   102.00  0.28348    
   103.00  0.28245    
   104.00  0.28160    
   105.00  0.28092    
   106.00  0.28040    
   107.00  0.28005    
   108.00  0.27986    
   109.00  0.27982    
   110.00  0.27993    
   111.00  0.28018    
   112.00  0.28057    
   113.00  0.28110    
   114.00  0.28176    
   115.00  0.28254    
   116.00  0.28345    
   117.00  0.28447    
   118.00  0.28561    
   119.00  0.28686    
   120.00  0.28822    
   121.00  0.28968    
   122.00  0.29124    
   123.00  0.29291    
   124.00  0.29466    
   125.00  0.29652    
   126.00  0.29846    
   127.00  0.30050    
   128.00  0.30262    
   129.00  0.30484    
   130.00  0.30714    
   131.00  0.30953    
   132.00  0.31201    
   133.00  0.31459    
   134.00  0.31725    
   135.00  0.31999    
   136.00  0.32283    
   137.00  0.32576    
   138.00  0.32877    
   139.00  0.33186    
   140.00  0.33502    
   141.00  0.33825    
   142.00  0.34154    
   143.00  0.34487    
   144.00  0.34822    
   145.00  0.35157    
   146.00  0.35489    
   147.00  0.35815    
   148.00  0.36131    
   149.00  0.36434    
   150.00  0.36718    
   151.00  0.36980    
   152.00  0.37215    
   153.00  0.37420    
   154.00  0.37591    
   155.00  0.37727    
   156.00  0.37826    
   157.00  0.37890    
   158.00  0.37922    
   159.00  0.37927    
   160.00  0.37913    
   161.00  0.37889    
   162.00  0.37868    
   163.00  0.37861    
   164.00  0.37882    
   165.00  0.37943    
   166.00  0.38058    
   167.00  0.38235    
   168.00  0.38479    
   169.00  0.38792    
   170.00  0.39172    
   171.00  0.39608    
   172.00  0.40089    
   173.00  0.40595    
   174.00  0.41104    
   175.00  0.41592    
   176.00  0.42035    
   177.00  0.42408    
   178.00  0.42691    
   179.00  0.42868    
   180.00  0.42928    
 |--------|------------|
0.500000     micron = Wavelength
0.191709     = Extinction efficiency (Q)
0.675501E-01 = Scattering efficiency (Qs)
0.124159     = Absorption efficiency (Qa)
 83.0788     = Lidar ratio
0.259481E-02 micron^2 = <b> = Average surface area per particle
0.497450E-03 microns^2 = Extinction cross section (C)
0.175280E-03 microns^2 = Scattering cross section (Cs)
0.322170E-03 microns^2 = Absorption cross section (Ca)
 |----------------------------------------------------|
 | COMMENTAIRES:                                      |
 |----------------------------------------------------|
 |   -Cross section / <b> should = efficiency         |
 |    is independant of the normalisation of dN/dx    |
 |   -The integral of the phase fct / 4 pi over all   |
 |    directions (solid angle) = 1.                   |
 |   -The volume coefficient (k) is equal to C * N    |
 |      = cross section * Number density              |
 |      typical units: [um^2]*[particles/cm^3] =      |
 |      [10^-3 km-1]                                  |
 |      N = M/(d*4/3*pi*r^3) where d is the density   |
 |      of particle, M is the mass per unit volume    |
 |      and 4/3*pi*r^3 is the average volume  of a    |
 |      particle.                                     |
 |      typical units:  M -> [ug/m^3], d -> [g/cm^3]  |
 |                      r -> [um]                     |
 |      Lidar ratio= 4 pi Qe / phase_fct(180)*Qs      |
 |----------------------------------------------------|
