 |--------|------------|
 | ANGLE  |  PHASE FCT |
 |--------|------------|
     0.00   86.469    
     1.00   84.713    
     2.00   79.750    
     3.00   72.385    
     4.00   63.638    
     5.00   54.473    
     6.00   45.627    
     7.00   37.566    
     8.00   30.530    
     9.00   24.583    
    10.00   19.680    
    11.00   15.716    
    12.00   12.558    
    13.00   10.070    
    14.00   8.1281    
    15.00   6.6207    
    16.00   5.4552    
    17.00   4.5555    
    18.00   3.8609    
    19.00   3.3233    
    20.00   2.9055    
    21.00   2.5787    
    22.00   2.3209    
    23.00   2.1156    
    24.00   1.9499    
    25.00   1.8145    
    26.00   1.7023    
    27.00   1.6078    
    28.00   1.5270    
    29.00   1.4569    
    30.00   1.3952    
    31.00   1.3401    
    32.00   1.2904    
    33.00   1.2451    
    34.00   1.2034    
    35.00   1.1647    
    36.00   1.1286    
    37.00   1.0947    
    38.00   1.0626    
    39.00   1.0322    
    40.00   1.0033    
    41.00  0.97566    
    42.00  0.94924    
    43.00  0.92391    
    44.00  0.89957    
    45.00  0.87614    
    46.00  0.85356    
    47.00  0.83177    
    48.00  0.81073    
    49.00  0.79039    
    50.00  0.77071    
    51.00  0.75165    
    52.00  0.73320    
    53.00  0.71532    
    54.00  0.69799    
    55.00  0.68119    
    56.00  0.66491    
    57.00  0.64912    
    58.00  0.63380    
    59.00  0.61895    
    60.00  0.60456    
    61.00  0.59062    
    62.00  0.57710    
    63.00  0.56401    
    64.00  0.55133    
    65.00  0.53906    
    66.00  0.52719    
    67.00  0.51570    
    68.00  0.50461    
    69.00  0.49389    
    70.00  0.48355    
    71.00  0.47357    
    72.00  0.46395    
    73.00  0.45469    
    74.00  0.44578    
    75.00  0.43722    
    76.00  0.42900    
    77.00  0.42111    
    78.00  0.41355    
    79.00  0.40632    
    80.00  0.39941    
    81.00  0.39282    
    82.00  0.38654    
    83.00  0.38057    
    84.00  0.37489    
    85.00  0.36952    
    86.00  0.36443    
    87.00  0.35963    
    88.00  0.35512    
    89.00  0.35088    
    90.00  0.34691    
    91.00  0.34321    
    92.00  0.33977    
    93.00  0.33658    
    94.00  0.33364    
    95.00  0.33095    
    96.00  0.32850    
    97.00  0.32629    
    98.00  0.32430    
    99.00  0.32253    
   100.00  0.32098    
   101.00  0.31965    
   102.00  0.31851    
   103.00  0.31758    
   104.00  0.31685    
   105.00  0.31630    
   106.00  0.31594    
   107.00  0.31575    
   108.00  0.31574    
   109.00  0.31589    
   110.00  0.31621    
   111.00  0.31667    
   112.00  0.31729    
   113.00  0.31805    
   114.00  0.31895    
   115.00  0.31998    
   116.00  0.32114    
   117.00  0.32241    
   118.00  0.32381    
   119.00  0.32531    
   120.00  0.32691    
   121.00  0.32862    
   122.00  0.33042    
   123.00  0.33231    
   124.00  0.33428    
   125.00  0.33633    
   126.00  0.33845    
   127.00  0.34064    
   128.00  0.34290    
   129.00  0.34521    
   130.00  0.34758    
   131.00  0.34999    
   132.00  0.35246    
   133.00  0.35497    
   134.00  0.35751    
   135.00  0.36010    
   136.00  0.36271    
   137.00  0.36536    
   138.00  0.36804    
   139.00  0.37075    
   140.00  0.37349    
   141.00  0.37625    
   142.00  0.37905    
   143.00  0.38188    
   144.00  0.38474    
   145.00  0.38764    
   146.00  0.39057    
   147.00  0.39354    
   148.00  0.39654    
   149.00  0.39957    
   150.00  0.40263    
   151.00  0.40570    
   152.00  0.40875    
   153.00  0.41178    
   154.00  0.41474    
   155.00  0.41759    
   156.00  0.42029    
   157.00  0.42279    
   158.00  0.42503    
   159.00  0.42697    
   160.00  0.42855    
   161.00  0.42975    
   162.00  0.43056    
   163.00  0.43100    
   164.00  0.43111    
   165.00  0.43096    
   166.00  0.43066    
   167.00  0.43034    
   168.00  0.43011    
   169.00  0.43012    
   170.00  0.43046    
   171.00  0.43122    
   172.00  0.43241    
   173.00  0.43401    
   174.00  0.43592    
   175.00  0.43801    
   176.00  0.44009    
   177.00  0.44198    
   178.00  0.44349    
   179.00  0.44447    
   180.00  0.44481    
 |--------|------------|
0.760000     micron = Wavelength
0.246841     = Extinction efficiency (Q)
0.874460E-01 = Scattering efficiency (Qs)
0.159395     = Absorption efficiency (Qa)
 79.7475     = Lidar ratio
0.100547E-01 micron^2 = <b> = Average surface area per particle
0.248190E-02 microns^2 = Extinction cross section (C)
0.879240E-03 microns^2 = Scattering cross section (Cs)
0.160266E-02 microns^2 = Absorption cross section (Ca)
 |----------------------------------------------------|
 | COMMENTAIRES:                                      |
 |----------------------------------------------------|
 |   -Cross section / <b> should = efficiency         |
 |    is independant of the normalisation of dN/dx    |
 |   -The integral of the phase fct / 4 pi over all   |
 |    directions (solid angle) = 1.                   |
 |   -The volume coefficient (k) is equal to C * N    |
 |      = cross section * Number density              |
 |      typical units: [um^2]*[particles/cm^3] =      |
 |      [10^-3 km-1]                                  |
 |      N = M/(d*4/3*pi*r^3) where d is the density   |
 |      of particle, M is the mass per unit volume    |
 |      and 4/3*pi*r^3 is the average volume  of a    |
 |      particle.                                     |
 |      typical units:  M -> [ug/m^3], d -> [g/cm^3]  |
 |                      r -> [um]                     |
 |      Lidar ratio= 4 pi Qe / phase_fct(180)*Qs      |
 |----------------------------------------------------|
