 |--------|------------|
 | ANGLE  |  PHASE FCT |
 |--------|------------|
     0.00   88.659    
     1.00   85.643    
     2.00   77.423    
     3.00   66.036    
     4.00   53.754    
     5.00   42.276    
     6.00   32.481    
     7.00   24.605    
     8.00   18.531    
     9.00   13.986    
    10.00   10.657    
    11.00   8.2514    
    12.00   6.5277    
    13.00   5.2972    
    14.00   4.4178    
    15.00   3.7857    
    16.00   3.3267    
    17.00   2.9889    
    18.00   2.7355    
    19.00   2.5413    
    20.00   2.3889    
    21.00   2.2664    
    22.00   2.1652    
    23.00   2.0797    
    24.00   2.0060    
    25.00   1.9410    
    26.00   1.8828    
    27.00   1.8299    
    28.00   1.7813    
    29.00   1.7361    
    30.00   1.6937    
    31.00   1.6536    
    32.00   1.6155    
    33.00   1.5792    
    34.00   1.5442    
    35.00   1.5105    
    36.00   1.4778    
    37.00   1.4461    
    38.00   1.4152    
    39.00   1.3851    
    40.00   1.3557    
    41.00   1.3269    
    42.00   1.2986    
    43.00   1.2709    
    44.00   1.2437    
    45.00   1.2170    
    46.00   1.1907    
    47.00   1.1649    
    48.00   1.1395    
    49.00   1.1145    
    50.00   1.0900    
    51.00   1.0659    
    52.00   1.0421    
    53.00   1.0189    
    54.00  0.99598    
    55.00  0.97353    
    56.00  0.95150    
    57.00  0.92991    
    58.00  0.90875    
    59.00  0.88803    
    60.00  0.86775    
    61.00  0.84791    
    62.00  0.82852    
    63.00  0.80958    
    64.00  0.79111    
    65.00  0.77308    
    66.00  0.75552    
    67.00  0.73843    
    68.00  0.72180    
    69.00  0.70563    
    70.00  0.68993    
    71.00  0.67469    
    72.00  0.65992    
    73.00  0.64561    
    74.00  0.63177    
    75.00  0.61839    
    76.00  0.60547    
    77.00  0.59301    
    78.00  0.58100    
    79.00  0.56945    
    80.00  0.55834    
    81.00  0.54767    
    82.00  0.53744    
    83.00  0.52765    
    84.00  0.51828    
    85.00  0.50934    
    86.00  0.50081    
    87.00  0.49270    
    88.00  0.48498    
    89.00  0.47767    
    90.00  0.47075    
    91.00  0.46421    
    92.00  0.45804    
    93.00  0.45225    
    94.00  0.44682    
    95.00  0.44174    
    96.00  0.43700    
    97.00  0.43260    
    98.00  0.42853    
    99.00  0.42479    
   100.00  0.42135    
   101.00  0.41822    
   102.00  0.41539    
   103.00  0.41284    
   104.00  0.41057    
   105.00  0.40857    
   106.00  0.40683    
   107.00  0.40534    
   108.00  0.40410    
   109.00  0.40310    
   110.00  0.40232    
   111.00  0.40176    
   112.00  0.40141    
   113.00  0.40127    
   114.00  0.40132    
   115.00  0.40155    
   116.00  0.40196    
   117.00  0.40255    
   118.00  0.40329    
   119.00  0.40419    
   120.00  0.40523    
   121.00  0.40641    
   122.00  0.40772    
   123.00  0.40916    
   124.00  0.41071    
   125.00  0.41237    
   126.00  0.41413    
   127.00  0.41599    
   128.00  0.41794    
   129.00  0.41996    
   130.00  0.42206    
   131.00  0.42423    
   132.00  0.42646    
   133.00  0.42874    
   134.00  0.43108    
   135.00  0.43345    
   136.00  0.43587    
   137.00  0.43831    
   138.00  0.44079    
   139.00  0.44328    
   140.00  0.44579    
   141.00  0.44832    
   142.00  0.45085    
   143.00  0.45339    
   144.00  0.45593    
   145.00  0.45847    
   146.00  0.46101    
   147.00  0.46355    
   148.00  0.46608    
   149.00  0.46860    
   150.00  0.47111    
   151.00  0.47362    
   152.00  0.47611    
   153.00  0.47859    
   154.00  0.48104    
   155.00  0.48345    
   156.00  0.48581    
   157.00  0.48810    
   158.00  0.49029    
   159.00  0.49237    
   160.00  0.49431    
   161.00  0.49608    
   162.00  0.49766    
   163.00  0.49906    
   164.00  0.50025    
   165.00  0.50128    
   166.00  0.50215    
   167.00  0.50292    
   168.00  0.50363    
   169.00  0.50434    
   170.00  0.50509    
   171.00  0.50594    
   172.00  0.50689    
   173.00  0.50796    
   174.00  0.50910    
   175.00  0.51026    
   176.00  0.51139    
   177.00  0.51238    
   178.00  0.51316    
   179.00  0.51367    
   180.00  0.51384    
 |--------|------------|
0.570000     micron = Wavelength
0.354003     = Extinction efficiency (Q)
0.143837     = Scattering efficiency (Qs)
0.210166     = Absorption efficiency (Qa)
 60.1891     = Lidar ratio
0.100546E-01 micron^2 = <b> = Average surface area per particle
0.355936E-02 microns^2 = Extinction cross section (C)
0.144623E-02 microns^2 = Scattering cross section (Cs)
0.211313E-02 microns^2 = Absorption cross section (Ca)
 |----------------------------------------------------|
 | COMMENTAIRES:                                      |
 |----------------------------------------------------|
 |   -Cross section / <b> should = efficiency         |
 |    is independant of the normalisation of dN/dx    |
 |   -The integral of the phase fct / 4 pi over all   |
 |    directions (solid angle) = 1.                   |
 |   -The volume coefficient (k) is equal to C * N    |
 |      = cross section * Number density              |
 |      typical units: [um^2]*[particles/cm^3] =      |
 |      [10^-3 km-1]                                  |
 |      N = M/(d*4/3*pi*r^3) where d is the density   |
 |      of particle, M is the mass per unit volume    |
 |      and 4/3*pi*r^3 is the average volume  of a    |
 |      particle.                                     |
 |      typical units:  M -> [ug/m^3], d -> [g/cm^3]  |
 |                      r -> [um]                     |
 |      Lidar ratio= 4 pi Qe / phase_fct(180)*Qs      |
 |----------------------------------------------------|
