 |--------|------------|
 | ANGLE  |  PHASE FCT |
 |--------|------------|
     0.00   64.753    
     1.00   62.341    
     2.00   55.826    
     3.00   46.958    
     4.00   37.631    
     5.00   29.175    
     6.00   22.187    
     7.00   16.745    
     8.00   12.673    
     9.00   9.7146    
    10.00   7.6052    
    11.00   6.1174    
    12.00   5.0729    
    13.00   4.3392    
    14.00   3.8201    
    15.00   3.4479    
    16.00   3.1760    
    17.00   2.9729    
    18.00   2.8166    
    19.00   2.6927    
    20.00   2.5915    
    21.00   2.5061    
    22.00   2.4322    
    23.00   2.3666    
    24.00   2.3072    
    25.00   2.2525    
    26.00   2.2015    
    27.00   2.1533    
    28.00   2.1074    
    29.00   2.0634    
    30.00   2.0209    
    31.00   1.9796    
    32.00   1.9394    
    33.00   1.9002    
    34.00   1.8618    
    35.00   1.8240    
    36.00   1.7868    
    37.00   1.7502    
    38.00   1.7141    
    39.00   1.6785    
    40.00   1.6433    
    41.00   1.6085    
    42.00   1.5741    
    43.00   1.5402    
    44.00   1.5066    
    45.00   1.4735    
    46.00   1.4407    
    47.00   1.4084    
    48.00   1.3765    
    49.00   1.3451    
    50.00   1.3141    
    51.00   1.2835    
    52.00   1.2534    
    53.00   1.2238    
    54.00   1.1947    
    55.00   1.1661    
    56.00   1.1380    
    57.00   1.1104    
    58.00   1.0833    
    59.00   1.0568    
    60.00   1.0309    
    61.00   1.0055    
    62.00  0.98064    
    63.00  0.95637    
    64.00  0.93268    
    65.00  0.90957    
    66.00  0.88704    
    67.00  0.86510    
    68.00  0.84376    
    69.00  0.82299    
    70.00  0.80282    
    71.00  0.78324    
    72.00  0.76424    
    73.00  0.74583    
    74.00  0.72801    
    75.00  0.71076    
    76.00  0.69409    
    77.00  0.67800    
    78.00  0.66247    
    79.00  0.64751    
    80.00  0.63310    
    81.00  0.61924    
    82.00  0.60593    
    83.00  0.59314    
    84.00  0.58089    
    85.00  0.56916    
    86.00  0.55793    
    87.00  0.54721    
    88.00  0.53699    
    89.00  0.52724    
    90.00  0.51797    
    91.00  0.50917    
    92.00  0.50082    
    93.00  0.49291    
    94.00  0.48544    
    95.00  0.47839    
    96.00  0.47176    
    97.00  0.46553    
    98.00  0.45969    
    99.00  0.45423    
   100.00  0.44915    
   101.00  0.44443    
   102.00  0.44005    
   103.00  0.43602    
   104.00  0.43232    
   105.00  0.42893    
   106.00  0.42586    
   107.00  0.42308    
   108.00  0.42059    
   109.00  0.41838    
   110.00  0.41644    
   111.00  0.41475    
   112.00  0.41331    
   113.00  0.41211    
   114.00  0.41114    
   115.00  0.41039    
   116.00  0.40985    
   117.00  0.40950    
   118.00  0.40935    
   119.00  0.40939    
   120.00  0.40959    
   121.00  0.40996    
   122.00  0.41049    
   123.00  0.41116    
   124.00  0.41198    
   125.00  0.41293    
   126.00  0.41400    
   127.00  0.41518    
   128.00  0.41648    
   129.00  0.41788    
   130.00  0.41937    
   131.00  0.42095    
   132.00  0.42260    
   133.00  0.42433    
   134.00  0.42613    
   135.00  0.42798    
   136.00  0.42989    
   137.00  0.43185    
   138.00  0.43385    
   139.00  0.43589    
   140.00  0.43795    
   141.00  0.44005    
   142.00  0.44216    
   143.00  0.44429    
   144.00  0.44642    
   145.00  0.44857    
   146.00  0.45072    
   147.00  0.45287    
   148.00  0.45502    
   149.00  0.45716    
   150.00  0.45930    
   151.00  0.46142    
   152.00  0.46352    
   153.00  0.46560    
   154.00  0.46765    
   155.00  0.46967    
   156.00  0.47163    
   157.00  0.47354    
   158.00  0.47538    
   159.00  0.47714    
   160.00  0.47881    
   161.00  0.48037    
   162.00  0.48182    
   163.00  0.48316    
   164.00  0.48439    
   165.00  0.48551    
   166.00  0.48655    
   167.00  0.48751    
   168.00  0.48843    
   169.00  0.48933    
   170.00  0.49021    
   171.00  0.49111    
   172.00  0.49201    
   173.00  0.49292    
   174.00  0.49381    
   175.00  0.49466    
   176.00  0.49543    
   177.00  0.49609    
   178.00  0.49659    
   179.00  0.49691    
   180.00  0.49702    
 |--------|------------|
0.360000     micron = Wavelength
0.444102     = Extinction efficiency (Q)
0.198055     = Scattering efficiency (Qs)
0.246047     = Absorption efficiency (Qa)
 56.6939     = Lidar ratio
0.513780E-02 micron^2 = <b> = Average surface area per particle
0.228171E-02 microns^2 = Extinction cross section (C)
0.101757E-02 microns^2 = Scattering cross section (Cs)
0.126414E-02 microns^2 = Absorption cross section (Ca)
 |----------------------------------------------------|
 | COMMENTAIRES:                                      |
 |----------------------------------------------------|
 |   -Cross section / <b> should = efficiency         |
 |    is independant of the normalisation of dN/dx    |
 |   -The integral of the phase fct / 4 pi over all   |
 |    directions (solid angle) = 1.                   |
 |   -The volume coefficient (k) is equal to C * N    |
 |      = cross section * Number density              |
 |      typical units: [um^2]*[particles/cm^3] =      |
 |      [10^-3 km-1]                                  |
 |      N = M/(d*4/3*pi*r^3) where d is the density   |
 |      of particle, M is the mass per unit volume    |
 |      and 4/3*pi*r^3 is the average volume  of a    |
 |      particle.                                     |
 |      typical units:  M -> [ug/m^3], d -> [g/cm^3]  |
 |                      r -> [um]                     |
 |      Lidar ratio= 4 pi Qe / phase_fct(180)*Qs      |
 |----------------------------------------------------|
