 |--------|------------|
 | ANGLE  |  PHASE FCT |
 |--------|------------|
     0.00   56.044    
     1.00   54.848    
     2.00   51.481    
     3.00   46.521    
     4.00   40.689    
     5.00   34.651    
     6.00   28.900    
     7.00   23.728    
     8.00   19.274    
     9.00   15.560    
    10.00   12.538    
    11.00   10.124    
    12.00   8.2233    
    13.00   6.7424    
    14.00   5.5971    
    15.00   4.7156    
    16.00   4.0383    
    17.00   3.5178    
    18.00   3.1167    
    19.00   2.8059    
    20.00   2.5633    
    21.00   2.3719    
    22.00   2.2191    
    23.00   2.0952    
    24.00   1.9933    
    25.00   1.9079    
    26.00   1.8351    
    27.00   1.7720    
    28.00   1.7164    
    29.00   1.6665    
    30.00   1.6212    
    31.00   1.5796    
    32.00   1.5409    
    33.00   1.5046    
    34.00   1.4703    
    35.00   1.4376    
    36.00   1.4063    
    37.00   1.3762    
    38.00   1.3472    
    39.00   1.3191    
    40.00   1.2917    
    41.00   1.2651    
    42.00   1.2392    
    43.00   1.2138    
    44.00   1.1890    
    45.00   1.1647    
    46.00   1.1409    
    47.00   1.1175    
    48.00   1.0946    
    49.00   1.0721    
    50.00   1.0501    
    51.00   1.0284    
    52.00   1.0071    
    53.00  0.98622    
    54.00  0.96571    
    55.00  0.94559    
    56.00  0.92585    
    57.00  0.90649    
    58.00  0.88752    
    59.00  0.86894    
    60.00  0.85074    
    61.00  0.83293    
    62.00  0.81552    
    63.00  0.79850    
    64.00  0.78188    
    65.00  0.76566    
    66.00  0.74984    
    67.00  0.73443    
    68.00  0.71942    
    69.00  0.70482    
    70.00  0.69064    
    71.00  0.67686    
    72.00  0.66350    
    73.00  0.65055    
    74.00  0.63802    
    75.00  0.62590    
    76.00  0.61420    
    77.00  0.60291    
    78.00  0.59203    
    79.00  0.58156    
    80.00  0.57150    
    81.00  0.56184    
    82.00  0.55259    
    83.00  0.54374    
    84.00  0.53529    
    85.00  0.52723    
    86.00  0.51956    
    87.00  0.51228    
    88.00  0.50538    
    89.00  0.49886    
    90.00  0.49271    
    91.00  0.48692    
    92.00  0.48150    
    93.00  0.47643    
    94.00  0.47172    
    95.00  0.46734    
    96.00  0.46330    
    97.00  0.45959    
    98.00  0.45621    
    99.00  0.45314    
   100.00  0.45038    
   101.00  0.44793    
   102.00  0.44577    
   103.00  0.44389    
   104.00  0.44229    
   105.00  0.44097    
   106.00  0.43991    
   107.00  0.43911    
   108.00  0.43856    
   109.00  0.43824    
   110.00  0.43816    
   111.00  0.43830    
   112.00  0.43866    
   113.00  0.43923    
   114.00  0.44000    
   115.00  0.44096    
   116.00  0.44210    
   117.00  0.44342    
   118.00  0.44491    
   119.00  0.44656    
   120.00  0.44836    
   121.00  0.45030    
   122.00  0.45238    
   123.00  0.45459    
   124.00  0.45692    
   125.00  0.45936    
   126.00  0.46191    
   127.00  0.46456    
   128.00  0.46730    
   129.00  0.47013    
   130.00  0.47303    
   131.00  0.47601    
   132.00  0.47905    
   133.00  0.48215    
   134.00  0.48531    
   135.00  0.48851    
   136.00  0.49176    
   137.00  0.49505    
   138.00  0.49838    
   139.00  0.50173    
   140.00  0.50511    
   141.00  0.50852    
   142.00  0.51194    
   143.00  0.51538    
   144.00  0.51884    
   145.00  0.52230    
   146.00  0.52575    
   147.00  0.52920    
   148.00  0.53263    
   149.00  0.53603    
   150.00  0.53939    
   151.00  0.54269    
   152.00  0.54591    
   153.00  0.54903    
   154.00  0.55203    
   155.00  0.55489    
   156.00  0.55760    
   157.00  0.56013    
   158.00  0.56249    
   159.00  0.56466    
   160.00  0.56666    
   161.00  0.56850    
   162.00  0.57021    
   163.00  0.57182    
   164.00  0.57339    
   165.00  0.57495    
   166.00  0.57656    
   167.00  0.57826    
   168.00  0.58009    
   169.00  0.58207    
   170.00  0.58420    
   171.00  0.58647    
   172.00  0.58885    
   173.00  0.59126    
   174.00  0.59365    
   175.00  0.59590    
   176.00  0.59793    
   177.00  0.59963    
   178.00  0.60092    
   179.00  0.60173    
   180.00  0.60200    
 |--------|------------|
0.340000     micron = Wavelength
0.304484     = Extinction efficiency (Q)
0.121177     = Scattering efficiency (Qs)
0.183307     = Absorption efficiency (Qa)
 52.4512     = Lidar ratio
0.259481E-02 micron^2 = <b> = Average surface area per particle
0.790077E-03 microns^2 = Extinction cross section (C)
0.314431E-03 microns^2 = Scattering cross section (Cs)
0.475646E-03 microns^2 = Absorption cross section (Ca)
 |----------------------------------------------------|
 | COMMENTAIRES:                                      |
 |----------------------------------------------------|
 |   -Cross section / <b> should = efficiency         |
 |    is independant of the normalisation of dN/dx    |
 |   -The integral of the phase fct / 4 pi over all   |
 |    directions (solid angle) = 1.                   |
 |   -The volume coefficient (k) is equal to C * N    |
 |      = cross section * Number density              |
 |      typical units: [um^2]*[particles/cm^3] =      |
 |      [10^-3 km-1]                                  |
 |      N = M/(d*4/3*pi*r^3) where d is the density   |
 |      of particle, M is the mass per unit volume    |
 |      and 4/3*pi*r^3 is the average volume  of a    |
 |      particle.                                     |
 |      typical units:  M -> [ug/m^3], d -> [g/cm^3]  |
 |                      r -> [um]                     |
 |      Lidar ratio= 4 pi Qe / phase_fct(180)*Qs      |
 |----------------------------------------------------|
