 |--------|------------|
 | ANGLE  |  PHASE FCT |
 |--------|------------|
     0.00   53.000    
     1.00   52.444    
     2.00   50.829    
     3.00   48.300    
     4.00   45.064    
     5.00   41.357    
     6.00   37.402    
     7.00   33.397    
     8.00   29.499    
     9.00   25.819    
    10.00   22.431    
    11.00   19.372    
    12.00   16.656    
    13.00   14.278    
    14.00   12.218    
    15.00   10.451    
    16.00   8.9466    
    17.00   7.6734    
    18.00   6.6013    
    19.00   5.7020    
    20.00   4.9498    
    21.00   4.3216    
    22.00   3.7974    
    23.00   3.3598    
    24.00   2.9942    
    25.00   2.6880    
    26.00   2.4309    
    27.00   2.2141    
    28.00   2.0305    
    29.00   1.8741    
    30.00   1.7400    
    31.00   1.6243    
    32.00   1.5237    
    33.00   1.4356    
    34.00   1.3578    
    35.00   1.2885    
    36.00   1.2264    
    37.00   1.1702    
    38.00   1.1191    
    39.00   1.0723    
    40.00   1.0291    
    41.00  0.98906    
    42.00  0.95177    
    43.00  0.91688    
    44.00  0.88410    
    45.00  0.85321    
    46.00  0.82401    
    47.00  0.79634    
    48.00  0.77006    
    49.00  0.74505    
    50.00  0.72122    
    51.00  0.69848    
    52.00  0.67676    
    53.00  0.65600    
    54.00  0.63612    
    55.00  0.61709    
    56.00  0.59885    
    57.00  0.58137    
    58.00  0.56461    
    59.00  0.54853    
    60.00  0.53311    
    61.00  0.51831    
    62.00  0.50410    
    63.00  0.49048    
    64.00  0.47740    
    65.00  0.46485    
    66.00  0.45281    
    67.00  0.44126    
    68.00  0.43019    
    69.00  0.41957    
    70.00  0.40939    
    71.00  0.39964    
    72.00  0.39030    
    73.00  0.38136    
    74.00  0.37281    
    75.00  0.36463    
    76.00  0.35682    
    77.00  0.34935    
    78.00  0.34223    
    79.00  0.33544    
    80.00  0.32898    
    81.00  0.32283    
    82.00  0.31698    
    83.00  0.31143    
    84.00  0.30617    
    85.00  0.30119    
    86.00  0.29648    
    87.00  0.29204    
    88.00  0.28786    
    89.00  0.28393    
    90.00  0.28024    
    91.00  0.27680    
    92.00  0.27358    
    93.00  0.27060    
    94.00  0.26783    
    95.00  0.26528    
    96.00  0.26293    
    97.00  0.26079    
    98.00  0.25885    
    99.00  0.25709    
   100.00  0.25553    
   101.00  0.25414    
   102.00  0.25294    
   103.00  0.25190    
   104.00  0.25103    
   105.00  0.25031    
   106.00  0.24976    
   107.00  0.24935    
   108.00  0.24910    
   109.00  0.24898    
   110.00  0.24900    
   111.00  0.24915    
   112.00  0.24943    
   113.00  0.24984    
   114.00  0.25036    
   115.00  0.25100    
   116.00  0.25175    
   117.00  0.25261    
   118.00  0.25357    
   119.00  0.25463    
   120.00  0.25579    
   121.00  0.25704    
   122.00  0.25838    
   123.00  0.25981    
   124.00  0.26132    
   125.00  0.26292    
   126.00  0.26459    
   127.00  0.26635    
   128.00  0.26818    
   129.00  0.27009    
   130.00  0.27207    
   131.00  0.27413    
   132.00  0.27626    
   133.00  0.27847    
   134.00  0.28075    
   135.00  0.28311    
   136.00  0.28554    
   137.00  0.28806    
   138.00  0.29064    
   139.00  0.29331    
   140.00  0.29604    
   141.00  0.29885    
   142.00  0.30173    
   143.00  0.30466    
   144.00  0.30764    
   145.00  0.31065    
   146.00  0.31368    
   147.00  0.31670    
   148.00  0.31968    
   149.00  0.32259    
   150.00  0.32539    
   151.00  0.32804    
   152.00  0.33049    
   153.00  0.33270    
   154.00  0.33461    
   155.00  0.33619    
   156.00  0.33740    
   157.00  0.33821    
   158.00  0.33863    
   159.00  0.33866    
   160.00  0.33834    
   161.00  0.33771    
   162.00  0.33688    
   163.00  0.33594    
   164.00  0.33500    
   165.00  0.33421    
   166.00  0.33370    
   167.00  0.33358    
   168.00  0.33397    
   169.00  0.33492    
   170.00  0.33647    
   171.00  0.33859    
   172.00  0.34122    
   173.00  0.34422    
   174.00  0.34744    
   175.00  0.35068    
   176.00  0.35371    
   177.00  0.35634    
   178.00  0.35837    
   179.00  0.35965    
   180.00  0.36009    
 |--------|------------|
0.510000     micron = Wavelength
0.191565     = Extinction efficiency (Q)
0.663897E-01 = Scattering efficiency (Qs)
0.125175     = Absorption efficiency (Qa)
 100.697     = Lidar ratio
0.272778E-02 micron^2 = <b> = Average surface area per particle
0.522547E-03 microns^2 = Extinction cross section (C)
0.181097E-03 microns^2 = Scattering cross section (Cs)
0.341450E-03 microns^2 = Absorption cross section (Ca)
 |----------------------------------------------------|
 | COMMENTAIRES:                                      |
 |----------------------------------------------------|
 |   -Cross section / <b> should = efficiency         |
 |    is independant of the normalisation of dN/dx    |
 |   -The integral of the phase fct / 4 pi over all   |
 |    directions (solid angle) = 1.                   |
 |   -The volume coefficient (k) is equal to C * N    |
 |      = cross section * Number density              |
 |      typical units: [um^2]*[particles/cm^3] =      |
 |      [10^-3 km-1]                                  |
 |      N = M/(d*4/3*pi*r^3) where d is the density   |
 |      of particle, M is the mass per unit volume    |
 |      and 4/3*pi*r^3 is the average volume  of a    |
 |      particle.                                     |
 |      typical units:  M -> [ug/m^3], d -> [g/cm^3]  |
 |                      r -> [um]                     |
 |      Lidar ratio= 4 pi Qe / phase_fct(180)*Qs      |
 |----------------------------------------------------|
