 |--------|------------|
 | ANGLE  |  PHASE FCT |
 |--------|------------|
     0.00   71.471    
     1.00   69.957    
     2.00   65.691    
     3.00   59.393    
     4.00   51.968    
     5.00   44.255    
     6.00   36.882    
     7.00   30.228    
     8.00   24.477    
     9.00   19.663    
    10.00   15.733    
    11.00   12.585    
    12.00   10.099    
    13.00   8.1580    
    14.00   6.6539    
    15.00   5.4950    
    16.00   4.6043    
    17.00   3.9203    
    18.00   3.3943    
    19.00   2.9883    
    20.00   2.6729    
    21.00   2.4258    
    22.00   2.2303    
    23.00   2.0737    
    24.00   1.9463    
    25.00   1.8412    
    26.00   1.7529    
    27.00   1.6776    
    28.00   1.6123    
    29.00   1.5547    
    30.00   1.5033    
    31.00   1.4566    
    32.00   1.4139    
    33.00   1.3744    
    34.00   1.3374    
    35.00   1.3027    
    36.00   1.2698    
    37.00   1.2385    
    38.00   1.2086    
    39.00   1.1798    
    40.00   1.1522    
    41.00   1.1255    
    42.00   1.0997    
    43.00   1.0746    
    44.00   1.0503    
    45.00   1.0267    
    46.00   1.0037    
    47.00  0.98133    
    48.00  0.95949    
    49.00  0.93818    
    50.00  0.91739    
    51.00  0.89710    
    52.00  0.87729    
    53.00  0.85793    
    54.00  0.83903    
    55.00  0.82058    
    56.00  0.80257    
    57.00  0.78498    
    58.00  0.76782    
    59.00  0.75108    
    60.00  0.73475    
    61.00  0.71883    
    62.00  0.70333    
    63.00  0.68823    
    64.00  0.67353    
    65.00  0.65924    
    66.00  0.64535    
    67.00  0.63186    
    68.00  0.61876    
    69.00  0.60606    
    70.00  0.59376    
    71.00  0.58185    
    72.00  0.57032    
    73.00  0.55919    
    74.00  0.54844    
    75.00  0.53808    
    76.00  0.52810    
    77.00  0.51849    
    78.00  0.50926    
    79.00  0.50040    
    80.00  0.49192    
    81.00  0.48380    
    82.00  0.47604    
    83.00  0.46864    
    84.00  0.46159    
    85.00  0.45490    
    86.00  0.44855    
    87.00  0.44254    
    88.00  0.43686    
    89.00  0.43152    
    90.00  0.42651    
    91.00  0.42181    
    92.00  0.41743    
    93.00  0.41336    
    94.00  0.40959    
    95.00  0.40612    
    96.00  0.40294    
    97.00  0.40005    
    98.00  0.39743    
    99.00  0.39509    
   100.00  0.39302    
   101.00  0.39120    
   102.00  0.38963    
   103.00  0.38832    
   104.00  0.38724    
   105.00  0.38639    
   106.00  0.38577    
   107.00  0.38537    
   108.00  0.38517    
   109.00  0.38519    
   110.00  0.38540    
   111.00  0.38580    
   112.00  0.38638    
   113.00  0.38714    
   114.00  0.38807    
   115.00  0.38917    
   116.00  0.39041    
   117.00  0.39181    
   118.00  0.39335    
   119.00  0.39502    
   120.00  0.39682    
   121.00  0.39874    
   122.00  0.40078    
   123.00  0.40292    
   124.00  0.40516    
   125.00  0.40750    
   126.00  0.40993    
   127.00  0.41244    
   128.00  0.41502    
   129.00  0.41768    
   130.00  0.42040    
   131.00  0.42318    
   132.00  0.42601    
   133.00  0.42889    
   134.00  0.43182    
   135.00  0.43479    
   136.00  0.43779    
   137.00  0.44082    
   138.00  0.44388    
   139.00  0.44697    
   140.00  0.45008    
   141.00  0.45321    
   142.00  0.45637    
   143.00  0.45954    
   144.00  0.46274    
   145.00  0.46595    
   146.00  0.46918    
   147.00  0.47243    
   148.00  0.47568    
   149.00  0.47894    
   150.00  0.48219    
   151.00  0.48543    
   152.00  0.48862    
   153.00  0.49176    
   154.00  0.49482    
   155.00  0.49775    
   156.00  0.50054    
   157.00  0.50314    
   158.00  0.50552    
   159.00  0.50764    
   160.00  0.50948    
   161.00  0.51103    
   162.00  0.51231    
   163.00  0.51332    
   164.00  0.51411    
   165.00  0.51475    
   166.00  0.51531    
   167.00  0.51587    
   168.00  0.51654    
   169.00  0.51737    
   170.00  0.51844    
   171.00  0.51979    
   172.00  0.52139    
   173.00  0.52323    
   174.00  0.52521    
   175.00  0.52722    
   176.00  0.52914    
   177.00  0.53082    
   178.00  0.53214    
   179.00  0.53297    
   180.00  0.53326    
 |--------|------------|
0.498000     micron = Wavelength
0.271567     = Extinction efficiency (Q)
0.985029E-01 = Scattering efficiency (Qs)
0.173064     = Absorption efficiency (Qa)
 64.9680     = Lidar ratio
0.513787E-02 micron^2 = <b> = Average surface area per particle
0.139528E-02 microns^2 = Extinction cross section (C)
0.506096E-03 microns^2 = Scattering cross section (Cs)
0.889180E-03 microns^2 = Absorption cross section (Ca)
 |----------------------------------------------------|
 | COMMENTAIRES:                                      |
 |----------------------------------------------------|
 |   -Cross section / <b> should = efficiency         |
 |    is independant of the normalisation of dN/dx    |
 |   -The integral of the phase fct / 4 pi over all   |
 |    directions (solid angle) = 1.                   |
 |   -The volume coefficient (k) is equal to C * N    |
 |      = cross section * Number density              |
 |      typical units: [um^2]*[particles/cm^3] =      |
 |      [10^-3 km-1]                                  |
 |      N = M/(d*4/3*pi*r^3) where d is the density   |
 |      of particle, M is the mass per unit volume    |
 |      and 4/3*pi*r^3 is the average volume  of a    |
 |      particle.                                     |
 |      typical units:  M -> [ug/m^3], d -> [g/cm^3]  |
 |                      r -> [um]                     |
 |      Lidar ratio= 4 pi Qe / phase_fct(180)*Qs      |
 |----------------------------------------------------|
