 |--------|------------|
 | ANGLE  |  PHASE FCT |
 |--------|------------|
     0.00   44.910    
     1.00   44.546    
     2.00   43.482    
     3.00   41.794    
     4.00   39.592    
     5.00   37.009    
     6.00   34.178    
     7.00   31.225    
     8.00   28.259    
     9.00   25.368    
    10.00   22.614    
    11.00   20.043    
    12.00   17.681    
    13.00   15.541    
    14.00   13.624    
    15.00   11.923    
    16.00   10.426    
    17.00   9.1165    
    18.00   7.9781    
    19.00   6.9928    
    20.00   6.1431    
    21.00   5.4122    
    22.00   4.7848    
    23.00   4.2468    
    24.00   3.7857    
    25.00   3.3903    
    26.00   3.0510    
    27.00   2.7594    
    28.00   2.5083    
    29.00   2.2913    
    30.00   2.1033    
    31.00   1.9396    
    32.00   1.7967    
    33.00   1.6711    
    34.00   1.5604    
    35.00   1.4622    
    36.00   1.3746    
    37.00   1.2960    
    38.00   1.2252    
    39.00   1.1610    
    40.00   1.1026    
    41.00   1.0491    
    42.00  0.99992    
    43.00  0.95450    
    44.00  0.91239    
    45.00  0.87322    
    46.00  0.83664    
    47.00  0.80240    
    48.00  0.77027    
    49.00  0.74003    
    50.00  0.71152    
    51.00  0.68458    
    52.00  0.65911    
    53.00  0.63497    
    54.00  0.61207    
    55.00  0.59032    
    56.00  0.56965    
    57.00  0.54999    
    58.00  0.53127    
    59.00  0.51345    
    60.00  0.49646    
    61.00  0.48027    
    62.00  0.46483    
    63.00  0.45010    
    64.00  0.43604    
    65.00  0.42263    
    66.00  0.40982    
    67.00  0.39761    
    68.00  0.38594    
    69.00  0.37481    
    70.00  0.36418    
    71.00  0.35404    
    72.00  0.34437    
    73.00  0.33513    
    74.00  0.32633    
    75.00  0.31794    
    76.00  0.30994    
    77.00  0.30231    
    78.00  0.29505    
    79.00  0.28814    
    80.00  0.28156    
    81.00  0.27531    
    82.00  0.26937    
    83.00  0.26373    
    84.00  0.25838    
    85.00  0.25331    
    86.00  0.24851    
    87.00  0.24397    
    88.00  0.23968    
    89.00  0.23563    
    90.00  0.23181    
    91.00  0.22823    
    92.00  0.22486    
    93.00  0.22170    
    94.00  0.21875    
    95.00  0.21600    
    96.00  0.21344    
    97.00  0.21106    
    98.00  0.20886    
    99.00  0.20684    
   100.00  0.20498    
   101.00  0.20329    
   102.00  0.20176    
   103.00  0.20037    
   104.00  0.19914    
   105.00  0.19805    
   106.00  0.19709    
   107.00  0.19627    
   108.00  0.19558    
   109.00  0.19501    
   110.00  0.19457    
   111.00  0.19424    
   112.00  0.19403    
   113.00  0.19393    
   114.00  0.19394    
   115.00  0.19405    
   116.00  0.19426    
   117.00  0.19457    
   118.00  0.19498    
   119.00  0.19548    
   120.00  0.19607    
   121.00  0.19675    
   122.00  0.19752    
   123.00  0.19837    
   124.00  0.19932    
   125.00  0.20034    
   126.00  0.20145    
   127.00  0.20264    
   128.00  0.20392    
   129.00  0.20528    
   130.00  0.20673    
   131.00  0.20826    
   132.00  0.20988    
   133.00  0.21158    
   134.00  0.21337    
   135.00  0.21524    
   136.00  0.21721    
   137.00  0.21925    
   138.00  0.22138    
   139.00  0.22359    
   140.00  0.22587    
   141.00  0.22822    
   142.00  0.23063    
   143.00  0.23308    
   144.00  0.23555    
   145.00  0.23803    
   146.00  0.24048    
   147.00  0.24289    
   148.00  0.24521    
   149.00  0.24740    
   150.00  0.24943    
   151.00  0.25125    
   152.00  0.25281    
   153.00  0.25408    
   154.00  0.25501    
   155.00  0.25557    
   156.00  0.25574    
   157.00  0.25552    
   158.00  0.25492    
   159.00  0.25396    
   160.00  0.25271    
   161.00  0.25123    
   162.00  0.24963    
   163.00  0.24801    
   164.00  0.24651    
   165.00  0.24525    
   166.00  0.24436    
   167.00  0.24396    
   168.00  0.24412    
   169.00  0.24491    
   170.00  0.24633    
   171.00  0.24834    
   172.00  0.25086    
   173.00  0.25376    
   174.00  0.25686    
   175.00  0.25998    
   176.00  0.26290    
   177.00  0.26543    
   178.00  0.26737    
   179.00  0.26860    
   180.00  0.26902    
 |--------|------------|
0.580000     micron = Wavelength
0.174764     = Extinction efficiency (Q)
0.641719E-01 = Scattering efficiency (Qs)
0.110592     = Absorption efficiency (Qa)
 127.212     = Lidar ratio
0.272778E-02 micron^2 = <b> = Average surface area per particle
0.476719E-03 microns^2 = Extinction cross section (C)
0.175047E-03 microns^2 = Scattering cross section (Cs)
0.301672E-03 microns^2 = Absorption cross section (Ca)
 |----------------------------------------------------|
 | COMMENTAIRES:                                      |
 |----------------------------------------------------|
 |   -Cross section / <b> should = efficiency         |
 |    is independant of the normalisation of dN/dx    |
 |   -The integral of the phase fct / 4 pi over all   |
 |    directions (solid angle) = 1.                   |
 |   -The volume coefficient (k) is equal to C * N    |
 |      = cross section * Number density              |
 |      typical units: [um^2]*[particles/cm^3] =      |
 |      [10^-3 km-1]                                  |
 |      N = M/(d*4/3*pi*r^3) where d is the density   |
 |      of particle, M is the mass per unit volume    |
 |      and 4/3*pi*r^3 is the average volume  of a    |
 |      particle.                                     |
 |      typical units:  M -> [ug/m^3], d -> [g/cm^3]  |
 |                      r -> [um]                     |
 |      Lidar ratio= 4 pi Qe / phase_fct(180)*Qs      |
 |----------------------------------------------------|
