 |--------|------------|
 | ANGLE  |  PHASE FCT |
 |--------|------------|
     0.00   61.499    
     1.00   60.560    
     2.00   57.870    
     3.00   53.769    
     4.00   48.715    
     5.00   43.180    
     6.00   37.570    
     7.00   32.194    
     8.00   27.248    
     9.00   22.844    
    10.00   19.019    
    11.00   15.764    
    12.00   13.038    
    13.00   10.784    
    14.00   8.9392    
    15.00   7.4416    
    16.00   6.2332    
    17.00   5.2627    
    18.00   4.4853    
    19.00   3.8635    
    20.00   3.3661    
    21.00   2.9677    
    22.00   2.6476    
    23.00   2.3891    
    24.00   2.1793    
    25.00   2.0076    
    26.00   1.8660    
    27.00   1.7479    
    28.00   1.6484    
    29.00   1.5635    
    30.00   1.4902    
    31.00   1.4260    
    32.00   1.3693    
    33.00   1.3185    
    34.00   1.2725    
    35.00   1.2304    
    36.00   1.1916    
    37.00   1.1555    
    38.00   1.1217    
    39.00   1.0899    
    40.00   1.0597    
    41.00   1.0310    
    42.00   1.0037    
    43.00  0.97748    
    44.00  0.95234    
    45.00  0.92815    
    46.00  0.90484    
    47.00  0.88236    
    48.00  0.86062    
    49.00  0.83960    
    50.00  0.81926    
    51.00  0.79955    
    52.00  0.78045    
    53.00  0.76193    
    54.00  0.74396    
    55.00  0.72654    
    56.00  0.70963    
    57.00  0.69322    
    58.00  0.67731    
    59.00  0.66186    
    60.00  0.64688    
    61.00  0.63235    
    62.00  0.61826    
    63.00  0.60461    
    64.00  0.59138    
    65.00  0.57856    
    66.00  0.56616    
    67.00  0.55416    
    68.00  0.54255    
    69.00  0.53134    
    70.00  0.52051    
    71.00  0.51007    
    72.00  0.49999    
    73.00  0.49029    
    74.00  0.48095    
    75.00  0.47197    
    76.00  0.46334    
    77.00  0.45507    
    78.00  0.44714    
    79.00  0.43955    
    80.00  0.43230    
    81.00  0.42538    
    82.00  0.41878    
    83.00  0.41251    
    84.00  0.40656    
    85.00  0.40092    
    86.00  0.39558    
    87.00  0.39055    
    88.00  0.38582    
    89.00  0.38138    
    90.00  0.37723    
    91.00  0.37336    
    92.00  0.36977    
    93.00  0.36645    
    94.00  0.36339    
    95.00  0.36060    
    96.00  0.35807    
    97.00  0.35578    
    98.00  0.35374    
    99.00  0.35194    
   100.00  0.35038    
   101.00  0.34904    
   102.00  0.34792    
   103.00  0.34702    
   104.00  0.34633    
   105.00  0.34584    
   106.00  0.34556    
   107.00  0.34546    
   108.00  0.34555    
   109.00  0.34582    
   110.00  0.34627    
   111.00  0.34688    
   112.00  0.34766    
   113.00  0.34859    
   114.00  0.34968    
   115.00  0.35091    
   116.00  0.35227    
   117.00  0.35377    
   118.00  0.35540    
   119.00  0.35715    
   120.00  0.35901    
   121.00  0.36098    
   122.00  0.36306    
   123.00  0.36523    
   124.00  0.36750    
   125.00  0.36986    
   126.00  0.37230    
   127.00  0.37482    
   128.00  0.37741    
   129.00  0.38007    
   130.00  0.38280    
   131.00  0.38559    
   132.00  0.38844    
   133.00  0.39134    
   134.00  0.39430    
   135.00  0.39731    
   136.00  0.40038    
   137.00  0.40349    
   138.00  0.40664    
   139.00  0.40985    
   140.00  0.41310    
   141.00  0.41640    
   142.00  0.41974    
   143.00  0.42313    
   144.00  0.42655    
   145.00  0.43001    
   146.00  0.43349    
   147.00  0.43699    
   148.00  0.44049    
   149.00  0.44397    
   150.00  0.44740    
   151.00  0.45077    
   152.00  0.45403    
   153.00  0.45715    
   154.00  0.46009    
   155.00  0.46280    
   156.00  0.46525    
   157.00  0.46740    
   158.00  0.46923    
   159.00  0.47073    
   160.00  0.47190    
   161.00  0.47276    
   162.00  0.47335    
   163.00  0.47375    
   164.00  0.47403    
   165.00  0.47430    
   166.00  0.47466    
   167.00  0.47522    
   168.00  0.47608    
   169.00  0.47729    
   170.00  0.47892    
   171.00  0.48095    
   172.00  0.48335    
   173.00  0.48603    
   174.00  0.48885    
   175.00  0.49168    
   176.00  0.49431    
   177.00  0.49660    
   178.00  0.49836    
   179.00  0.49947    
   180.00  0.49985    
 |--------|------------|
0.420000     micron = Wavelength
0.230439     = Extinction efficiency (Q)
0.794523E-01 = Scattering efficiency (Qs)
0.150987     = Absorption efficiency (Qa)
 72.9155     = Lidar ratio
0.272779E-02 micron^2 = <b> = Average surface area per particle
0.628590E-03 microns^2 = Extinction cross section (C)
0.216729E-03 microns^2 = Scattering cross section (Cs)
0.411860E-03 microns^2 = Absorption cross section (Ca)
 |----------------------------------------------------|
 | COMMENTAIRES:                                      |
 |----------------------------------------------------|
 |   -Cross section / <b> should = efficiency         |
 |    is independant of the normalisation of dN/dx    |
 |   -The integral of the phase fct / 4 pi over all   |
 |    directions (solid angle) = 1.                   |
 |   -The volume coefficient (k) is equal to C * N    |
 |      = cross section * Number density              |
 |      typical units: [um^2]*[particles/cm^3] =      |
 |      [10^-3 km-1]                                  |
 |      N = M/(d*4/3*pi*r^3) where d is the density   |
 |      of particle, M is the mass per unit volume    |
 |      and 4/3*pi*r^3 is the average volume  of a    |
 |      particle.                                     |
 |      typical units:  M -> [ug/m^3], d -> [g/cm^3]  |
 |                      r -> [um]                     |
 |      Lidar ratio= 4 pi Qe / phase_fct(180)*Qs      |
 |----------------------------------------------------|
