 |--------|------------|
 | ANGLE  |  PHASE FCT |
 |--------|------------|
     0.00   122.04    
     1.00   116.62    
     2.00   102.16    
     3.00   83.019    
     4.00   63.685    
     5.00   46.999    
     6.00   33.922    
     7.00   24.250    
     8.00   17.363    
     9.00   12.591    
    10.00   9.3383    
    11.00   7.1364    
    12.00   5.6461    
    13.00   4.6328    
    14.00   3.9346    
    15.00   3.4439    
    16.00   3.0911    
    17.00   2.8303    
    18.00   2.6313    
    19.00   2.4746    
    20.00   2.3477    
    21.00   2.2421    
    22.00   2.1520    
    23.00   2.0736    
    24.00   2.0044    
    25.00   1.9422    
    26.00   1.8856    
    27.00   1.8336    
    28.00   1.7855    
    29.00   1.7405    
    30.00   1.6981    
    31.00   1.6580    
    32.00   1.6197    
    33.00   1.5830    
    34.00   1.5478    
    35.00   1.5137    
    36.00   1.4807    
    37.00   1.4486    
    38.00   1.4173    
    39.00   1.3867    
    40.00   1.3568    
    41.00   1.3275    
    42.00   1.2987    
    43.00   1.2705    
    44.00   1.2428    
    45.00   1.2155    
    46.00   1.1887    
    47.00   1.1623    
    48.00   1.1364    
    49.00   1.1109    
    50.00   1.0858    
    51.00   1.0611    
    52.00   1.0369    
    53.00   1.0131    
    54.00  0.98973    
    55.00  0.96679    
    56.00  0.94429    
    57.00  0.92222    
    58.00  0.90060    
    59.00  0.87944    
    60.00  0.85872    
    61.00  0.83846    
    62.00  0.81867    
    63.00  0.79934    
    64.00  0.78048    
    65.00  0.76209    
    66.00  0.74418    
    67.00  0.72673    
    68.00  0.70976    
    69.00  0.69327    
    70.00  0.67726    
    71.00  0.66172    
    72.00  0.64666    
    73.00  0.63207    
    74.00  0.61795    
    75.00  0.60430    
    76.00  0.59112    
    77.00  0.57841    
    78.00  0.56615    
    79.00  0.55435    
    80.00  0.54301    
    81.00  0.53211    
    82.00  0.52165    
    83.00  0.51163    
    84.00  0.50204    
    85.00  0.49288    
    86.00  0.48413    
    87.00  0.47579    
    88.00  0.46786    
    89.00  0.46033    
    90.00  0.45318    
    91.00  0.44642    
    92.00  0.44003    
    93.00  0.43401    
    94.00  0.42835    
    95.00  0.42304    
    96.00  0.41806    
    97.00  0.41343    
    98.00  0.40912    
    99.00  0.40512    
   100.00  0.40144    
   101.00  0.39805    
   102.00  0.39495    
   103.00  0.39214    
   104.00  0.38960    
   105.00  0.38733    
   106.00  0.38531    
   107.00  0.38354    
   108.00  0.38201    
   109.00  0.38071    
   110.00  0.37963    
   111.00  0.37877    
   112.00  0.37811    
   113.00  0.37766    
   114.00  0.37739    
   115.00  0.37730    
   116.00  0.37738    
   117.00  0.37764    
   118.00  0.37805    
   119.00  0.37860    
   120.00  0.37931    
   121.00  0.38014    
   122.00  0.38111    
   123.00  0.38220    
   124.00  0.38340    
   125.00  0.38470    
   126.00  0.38611    
   127.00  0.38761    
   128.00  0.38920    
   129.00  0.39086    
   130.00  0.39260    
   131.00  0.39441    
   132.00  0.39628    
   133.00  0.39821    
   134.00  0.40018    
   135.00  0.40220    
   136.00  0.40426    
   137.00  0.40635    
   138.00  0.40847    
   139.00  0.41061    
   140.00  0.41277    
   141.00  0.41494    
   142.00  0.41712    
   143.00  0.41930    
   144.00  0.42149    
   145.00  0.42367    
   146.00  0.42585    
   147.00  0.42802    
   148.00  0.43018    
   149.00  0.43233    
   150.00  0.43447    
   151.00  0.43659    
   152.00  0.43870    
   153.00  0.44080    
   154.00  0.44288    
   155.00  0.44493    
   156.00  0.44695    
   157.00  0.44893    
   158.00  0.45085    
   159.00  0.45270    
   160.00  0.45446    
   161.00  0.45610    
   162.00  0.45761    
   163.00  0.45896    
   164.00  0.46016    
   165.00  0.46121    
   166.00  0.46211    
   167.00  0.46289    
   168.00  0.46359    
   169.00  0.46425    
   170.00  0.46491    
   171.00  0.46561    
   172.00  0.46637    
   173.00  0.46720    
   174.00  0.46808    
   175.00  0.46899    
   176.00  0.46987    
   177.00  0.47065    
   178.00  0.47127    
   179.00  0.47167    
   180.00  0.47180    
 |--------|------------|
0.660000     micron = Wavelength
0.394676     = Extinction efficiency (Q)
0.166808     = Scattering efficiency (Qs)
0.227867     = Absorption efficiency (Qa)
 63.0191     = Lidar ratio
0.151667E-01 micron^2 = <b> = Average surface area per particle
0.598595E-02 microns^2 = Extinction cross section (C)
0.252994E-02 microns^2 = Scattering cross section (Cs)
0.345601E-02 microns^2 = Absorption cross section (Ca)
 |----------------------------------------------------|
 | COMMENTAIRES:                                      |
 |----------------------------------------------------|
 |   -Cross section / <b> should = efficiency         |
 |    is independant of the normalisation of dN/dx    |
 |   -The integral of the phase fct / 4 pi over all   |
 |    directions (solid angle) = 1.                   |
 |   -The volume coefficient (k) is equal to C * N    |
 |      = cross section * Number density              |
 |      typical units: [um^2]*[particles/cm^3] =      |
 |      [10^-3 km-1]                                  |
 |      N = M/(d*4/3*pi*r^3) where d is the density   |
 |      of particle, M is the mass per unit volume    |
 |      and 4/3*pi*r^3 is the average volume  of a    |
 |      particle.                                     |
 |      typical units:  M -> [ug/m^3], d -> [g/cm^3]  |
 |                      r -> [um]                     |
 |      Lidar ratio= 4 pi Qe / phase_fct(180)*Qs      |
 |----------------------------------------------------|
