 |--------|------------|
 | ANGLE  |  PHASE FCT |
 |--------|------------|
     0.00   63.306    
     1.00   59.857    
     2.00   50.888    
     3.00   39.585    
     4.00   28.976    
     5.00   20.636    
     6.00   14.725    
     7.00   10.750    
     8.00   8.1501    
     9.00   6.4852    
    10.00   5.4255    
    11.00   4.7420    
    12.00   4.2914    
    13.00   3.9860    
    14.00   3.7695    
    15.00   3.6074    
    16.00   3.4803    
    17.00   3.3758    
    18.00   3.2858    
    19.00   3.2057    
    20.00   3.1327    
    21.00   3.0646    
    22.00   3.0001    
    23.00   2.9383    
    24.00   2.8787    
    25.00   2.8205    
    26.00   2.7636    
    27.00   2.7076    
    28.00   2.6525    
    29.00   2.5979    
    30.00   2.5439    
    31.00   2.4903    
    32.00   2.4371    
    33.00   2.3843    
    34.00   2.3319    
    35.00   2.2798    
    36.00   2.2281    
    37.00   2.1767    
    38.00   2.1258    
    39.00   2.0753    
    40.00   2.0252    
    41.00   1.9757    
    42.00   1.9267    
    43.00   1.8782    
    44.00   1.8302    
    45.00   1.7830    
    46.00   1.7363    
    47.00   1.6904    
    48.00   1.6451    
    49.00   1.6006    
    50.00   1.5568    
    51.00   1.5138    
    52.00   1.4716    
    53.00   1.4302    
    54.00   1.3896    
    55.00   1.3499    
    56.00   1.3110    
    57.00   1.2730    
    58.00   1.2359    
    59.00   1.1997    
    60.00   1.1644    
    61.00   1.1299    
    62.00   1.0964    
    63.00   1.0638    
    64.00   1.0320    
    65.00   1.0012    
    66.00  0.97121    
    67.00  0.94214    
    68.00  0.91395    
    69.00  0.88663    
    70.00  0.86017    
    71.00  0.83457    
    72.00  0.80980    
    73.00  0.78587    
    74.00  0.76275    
    75.00  0.74044    
    76.00  0.71892    
    77.00  0.69819    
    78.00  0.67821    
    79.00  0.65899    
    80.00  0.64050    
    81.00  0.62272    
    82.00  0.60565    
    83.00  0.58927    
    84.00  0.57356    
    85.00  0.55850    
    86.00  0.54408    
    87.00  0.53028    
    88.00  0.51709    
    89.00  0.50448    
    90.00  0.49245    
    91.00  0.48098    
    92.00  0.47004    
    93.00  0.45963    
    94.00  0.44973    
    95.00  0.44032    
    96.00  0.43139    
    97.00  0.42293    
    98.00  0.41491    
    99.00  0.40732    
   100.00  0.40016    
   101.00  0.39339    
   102.00  0.38702    
   103.00  0.38103    
   104.00  0.37540    
   105.00  0.37012    
   106.00  0.36518    
   107.00  0.36057    
   108.00  0.35627    
   109.00  0.35227    
   110.00  0.34856    
   111.00  0.34513    
   112.00  0.34197    
   113.00  0.33907    
   114.00  0.33641    
   115.00  0.33399    
   116.00  0.33180    
   117.00  0.32983    
   118.00  0.32806    
   119.00  0.32649    
   120.00  0.32511    
   121.00  0.32391    
   122.00  0.32289    
   123.00  0.32203    
   124.00  0.32133    
   125.00  0.32078    
   126.00  0.32037    
   127.00  0.32009    
   128.00  0.31994    
   129.00  0.31991    
   130.00  0.31999    
   131.00  0.32018    
   132.00  0.32047    
   133.00  0.32086    
   134.00  0.32133    
   135.00  0.32189    
   136.00  0.32251    
   137.00  0.32322    
   138.00  0.32398    
   139.00  0.32481    
   140.00  0.32569    
   141.00  0.32662    
   142.00  0.32759    
   143.00  0.32860    
   144.00  0.32965    
   145.00  0.33073    
   146.00  0.33183    
   147.00  0.33296    
   148.00  0.33410    
   149.00  0.33526    
   150.00  0.33643    
   151.00  0.33760    
   152.00  0.33878    
   153.00  0.33996    
   154.00  0.34113    
   155.00  0.34230    
   156.00  0.34345    
   157.00  0.34459    
   158.00  0.34571    
   159.00  0.34680    
   160.00  0.34786    
   161.00  0.34887    
   162.00  0.34985    
   163.00  0.35077    
   164.00  0.35164    
   165.00  0.35246    
   166.00  0.35322    
   167.00  0.35394    
   168.00  0.35461    
   169.00  0.35523    
   170.00  0.35582    
   171.00  0.35639    
   172.00  0.35691    
   173.00  0.35742    
   174.00  0.35788    
   175.00  0.35831    
   176.00  0.35868    
   177.00  0.35899    
   178.00  0.35922    
   179.00  0.35936    
   180.00  0.35941    
 |--------|------------|
0.340000     micron = Wavelength
0.650578     = Extinction efficiency (Q)
0.332127     = Scattering efficiency (Qs)
0.318451     = Absorption efficiency (Qa)
 68.4882     = Lidar ratio
0.730401E-02 micron^2 = <b> = Average surface area per particle
0.475183E-02 microns^2 = Extinction cross section (C)
0.242586E-02 microns^2 = Scattering cross section (Cs)
0.232597E-02 microns^2 = Absorption cross section (Ca)
 |----------------------------------------------------|
 | COMMENTAIRES:                                      |
 |----------------------------------------------------|
 |   -Cross section / <b> should = efficiency         |
 |    is independant of the normalisation of dN/dx    |
 |   -The integral of the phase fct / 4 pi over all   |
 |    directions (solid angle) = 1.                   |
 |   -The volume coefficient (k) is equal to C * N    |
 |      = cross section * Number density              |
 |      typical units: [um^2]*[particles/cm^3] =      |
 |      [10^-3 km-1]                                  |
 |      N = M/(d*4/3*pi*r^3) where d is the density   |
 |      of particle, M is the mass per unit volume    |
 |      and 4/3*pi*r^3 is the average volume  of a    |
 |      particle.                                     |
 |      typical units:  M -> [ug/m^3], d -> [g/cm^3]  |
 |                      r -> [um]                     |
 |      Lidar ratio= 4 pi Qe / phase_fct(180)*Qs      |
 |----------------------------------------------------|
