 |--------|------------|
 | ANGLE  |  PHASE FCT |
 |--------|------------|
     0.00   49.504    
     1.00   49.060    
     2.00   47.765    
     3.00   45.721    
     4.00   43.073    
     5.00   39.994    
     6.00   36.653    
     7.00   33.206    
     8.00   29.784    
     9.00   26.488    
    10.00   23.388    
    11.00   20.530    
    12.00   17.938    
    13.00   15.619    
    14.00   13.568    
    15.00   11.770    
    16.00   10.207    
    17.00   8.8567    
    18.00   7.6966    
    19.00   6.7038    
    20.00   5.8570    
    21.00   5.1365    
    22.00   4.5241    
    23.00   4.0041    
    24.00   3.5623    
    25.00   3.1868    
    26.00   2.8669    
    27.00   2.5938    
    28.00   2.3600    
    29.00   2.1589    
    30.00   1.9854    
    31.00   1.8348    
    32.00   1.7035    
    33.00   1.5883    
    34.00   1.4866    
    35.00   1.3964    
    36.00   1.3158    
    37.00   1.2434    
    38.00   1.1779    
    39.00   1.1184    
    40.00   1.0640    
    41.00   1.0140    
    42.00  0.96792    
    43.00  0.92519    
    44.00  0.88544    
    45.00  0.84832    
    46.00  0.81358    
    47.00  0.78095    
    48.00  0.75025    
    49.00  0.72130    
    50.00  0.69393    
    51.00  0.66804    
    52.00  0.64350    
    53.00  0.62021    
    54.00  0.59810    
    55.00  0.57707    
    56.00  0.55707    
    57.00  0.53803    
    58.00  0.51988    
    59.00  0.50260    
    60.00  0.48611    
    61.00  0.47039    
    62.00  0.45539    
    63.00  0.44108    
    64.00  0.42742    
    65.00  0.41438    
    66.00  0.40194    
    67.00  0.39006    
    68.00  0.37871    
    69.00  0.36789    
    70.00  0.35756    
    71.00  0.34770    
    72.00  0.33829    
    73.00  0.32932    
    74.00  0.32076    
    75.00  0.31260    
    76.00  0.30483    
    77.00  0.29742    
    78.00  0.29037    
    79.00  0.28366    
    80.00  0.27727    
    81.00  0.27121    
    82.00  0.26545    
    83.00  0.25998    
    84.00  0.25479    
    85.00  0.24988    
    86.00  0.24523    
    87.00  0.24084    
    88.00  0.23669    
    89.00  0.23279    
    90.00  0.22911    
    91.00  0.22565    
    92.00  0.22241    
    93.00  0.21938    
    94.00  0.21654    
    95.00  0.21391    
    96.00  0.21146    
    97.00  0.20919    
    98.00  0.20710    
    99.00  0.20518    
   100.00  0.20342    
   101.00  0.20183    
   102.00  0.20039    
   103.00  0.19910    
   104.00  0.19795    
   105.00  0.19695    
   106.00  0.19608    
   107.00  0.19534    
   108.00  0.19472    
   109.00  0.19423    
   110.00  0.19386    
   111.00  0.19361    
   112.00  0.19346    
   113.00  0.19343    
   114.00  0.19350    
   115.00  0.19366    
   116.00  0.19393    
   117.00  0.19429    
   118.00  0.19474    
   119.00  0.19529    
   120.00  0.19592    
   121.00  0.19663    
   122.00  0.19743    
   123.00  0.19831    
   124.00  0.19927    
   125.00  0.20030    
   126.00  0.20142    
   127.00  0.20261    
   128.00  0.20388    
   129.00  0.20522    
   130.00  0.20665    
   131.00  0.20815    
   132.00  0.20972    
   133.00  0.21138    
   134.00  0.21312    
   135.00  0.21494    
   136.00  0.21684    
   137.00  0.21882    
   138.00  0.22089    
   139.00  0.22303    
   140.00  0.22526    
   141.00  0.22755    
   142.00  0.22992    
   143.00  0.23234    
   144.00  0.23481    
   145.00  0.23730    
   146.00  0.23981    
   147.00  0.24229    
   148.00  0.24473    
   149.00  0.24709    
   150.00  0.24932    
   151.00  0.25138    
   152.00  0.25322    
   153.00  0.25481    
   154.00  0.25608    
   155.00  0.25700    
   156.00  0.25754    
   157.00  0.25766    
   158.00  0.25738    
   159.00  0.25670    
   160.00  0.25566    
   161.00  0.25431    
   162.00  0.25275    
   163.00  0.25108    
   164.00  0.24942    
   165.00  0.24791    
   166.00  0.24668    
   167.00  0.24587    
   168.00  0.24557    
   169.00  0.24586    
   170.00  0.24678    
   171.00  0.24831    
   172.00  0.25038    
   173.00  0.25288    
   174.00  0.25565    
   175.00  0.25848    
   176.00  0.26119    
   177.00  0.26355    
   178.00  0.26539    
   179.00  0.26656    
   180.00  0.26696    
 |--------|------------|
0.640000     micron = Wavelength
0.180805     = Extinction efficiency (Q)
0.659741E-01 = Scattering efficiency (Qs)
0.114831     = Absorption efficiency (Qa)
 129.003     = Lidar ratio
0.352421E-02 micron^2 = <b> = Average surface area per particle
0.637194E-03 microns^2 = Extinction cross section (C)
0.232506E-03 microns^2 = Scattering cross section (Cs)
0.404688E-03 microns^2 = Absorption cross section (Ca)
 |----------------------------------------------------|
 | COMMENTAIRES:                                      |
 |----------------------------------------------------|
 |   -Cross section / <b> should = efficiency         |
 |    is independant of the normalisation of dN/dx    |
 |   -The integral of the phase fct / 4 pi over all   |
 |    directions (solid angle) = 1.                   |
 |   -The volume coefficient (k) is equal to C * N    |
 |      = cross section * Number density              |
 |      typical units: [um^2]*[particles/cm^3] =      |
 |      [10^-3 km-1]                                  |
 |      N = M/(d*4/3*pi*r^3) where d is the density   |
 |      of particle, M is the mass per unit volume    |
 |      and 4/3*pi*r^3 is the average volume  of a    |
 |      particle.                                     |
 |      typical units:  M -> [ug/m^3], d -> [g/cm^3]  |
 |                      r -> [um]                     |
 |      Lidar ratio= 4 pi Qe / phase_fct(180)*Qs      |
 |----------------------------------------------------|
