 |--------|------------|
 | ANGLE  |  PHASE FCT |
 |--------|------------|
     0.00   45.276    
     1.00   44.918    
     2.00   43.868    
     3.00   42.201    
     4.00   40.024    
     5.00   37.465    
     6.00   34.656    
     7.00   31.720    
     8.00   28.763    
     9.00   25.873    
    10.00   23.114    
    11.00   20.531    
    12.00   18.152    
    13.00   15.990    
    14.00   14.048    
    15.00   12.320    
    16.00   10.794    
    17.00   9.4556    
    18.00   8.2886    
    19.00   7.2755    
    20.00   6.3990    
    21.00   5.6428    
    22.00   4.9917    
    23.00   4.4317    
    24.00   3.9502    
    25.00   3.5362    
    26.00   3.1799    
    27.00   2.8728    
    28.00   2.6076    
    29.00   2.3779    
    30.00   2.1784    
    31.00   2.0044    
    32.00   1.8522    
    33.00   1.7183    
    34.00   1.6000    
    35.00   1.4950    
    36.00   1.4014    
    37.00   1.3174    
    38.00   1.2417    
    39.00   1.1732    
    40.00   1.1108    
    41.00   1.0538    
    42.00   1.0015    
    43.00  0.95325    
    44.00  0.90861    
    45.00  0.86717    
    46.00  0.82858    
    47.00  0.79254    
    48.00  0.75878    
    49.00  0.72711    
    50.00  0.69732    
    51.00  0.66925    
    52.00  0.64277    
    53.00  0.61774    
    54.00  0.59406    
    55.00  0.57164    
    56.00  0.55037    
    57.00  0.53020    
    58.00  0.51104    
    59.00  0.49283    
    60.00  0.47553    
    61.00  0.45907    
    62.00  0.44340    
    63.00  0.42850    
    64.00  0.41430    
    65.00  0.40078    
    66.00  0.38791    
    67.00  0.37564    
    68.00  0.36396    
    69.00  0.35282    
    70.00  0.34221    
    71.00  0.33210    
    72.00  0.32247    
    73.00  0.31330    
    74.00  0.30456    
    75.00  0.29624    
    76.00  0.28832    
    77.00  0.28078    
    78.00  0.27361    
    79.00  0.26679    
    80.00  0.26030    
    81.00  0.25413    
    82.00  0.24828    
    83.00  0.24272    
    84.00  0.23745    
    85.00  0.23246    
    86.00  0.22773    
    87.00  0.22325    
    88.00  0.21902    
    89.00  0.21502    
    90.00  0.21126    
    91.00  0.20771    
    92.00  0.20437    
    93.00  0.20124    
    94.00  0.19830    
    95.00  0.19555    
    96.00  0.19299    
    97.00  0.19060    
    98.00  0.18838    
    99.00  0.18633    
   100.00  0.18443    
   101.00  0.18269    
   102.00  0.18110    
   103.00  0.17965    
   104.00  0.17834    
   105.00  0.17717    
   106.00  0.17612    
   107.00  0.17520    
   108.00  0.17440    
   109.00  0.17372    
   110.00  0.17315    
   111.00  0.17269    
   112.00  0.17234    
   113.00  0.17209    
   114.00  0.17194    
   115.00  0.17189    
   116.00  0.17193    
   117.00  0.17207    
   118.00  0.17229    
   119.00  0.17261    
   120.00  0.17300    
   121.00  0.17349    
   122.00  0.17405    
   123.00  0.17470    
   124.00  0.17542    
   125.00  0.17623    
   126.00  0.17712    
   127.00  0.17808    
   128.00  0.17913    
   129.00  0.18025    
   130.00  0.18145    
   131.00  0.18274    
   132.00  0.18410    
   133.00  0.18555    
   134.00  0.18709    
   135.00  0.18870    
   136.00  0.19040    
   137.00  0.19218    
   138.00  0.19405    
   139.00  0.19599    
   140.00  0.19801    
   141.00  0.20009    
   142.00  0.20223    
   143.00  0.20442    
   144.00  0.20664    
   145.00  0.20887    
   146.00  0.21109    
   147.00  0.21327    
   148.00  0.21538    
   149.00  0.21738    
   150.00  0.21923    
   151.00  0.22088    
   152.00  0.22230    
   153.00  0.22344    
   154.00  0.22425    
   155.00  0.22471    
   156.00  0.22479    
   157.00  0.22447    
   158.00  0.22377    
   159.00  0.22269    
   160.00  0.22129    
   161.00  0.21964    
   162.00  0.21782    
   163.00  0.21593    
   164.00  0.21411    
   165.00  0.21247    
   166.00  0.21116    
   167.00  0.21028    
   168.00  0.20993    
   169.00  0.21017    
   170.00  0.21102    
   171.00  0.21247    
   172.00  0.21444    
   173.00  0.21681    
   174.00  0.21943    
   175.00  0.22212    
   176.00  0.22468    
   177.00  0.22691    
   178.00  0.22864    
   179.00  0.22974    
   180.00  0.23012    
 |--------|------------|
0.680000     micron = Wavelength
0.174696     = Extinction efficiency (Q)
0.658822E-01 = Scattering efficiency (Qs)
0.108814     = Absorption efficiency (Qa)
 144.802     = Lidar ratio
0.352421E-02 micron^2 = <b> = Average surface area per particle
0.615666E-03 microns^2 = Extinction cross section (C)
0.232183E-03 microns^2 = Scattering cross section (Cs)
0.383483E-03 microns^2 = Absorption cross section (Ca)
 |----------------------------------------------------|
 | COMMENTAIRES:                                      |
 |----------------------------------------------------|
 |   -Cross section / <b> should = efficiency         |
 |    is independant of the normalisation of dN/dx    |
 |   -The integral of the phase fct / 4 pi over all   |
 |    directions (solid angle) = 1.                   |
 |   -The volume coefficient (k) is equal to C * N    |
 |      = cross section * Number density              |
 |      typical units: [um^2]*[particles/cm^3] =      |
 |      [10^-3 km-1]                                  |
 |      N = M/(d*4/3*pi*r^3) where d is the density   |
 |      of particle, M is the mass per unit volume    |
 |      and 4/3*pi*r^3 is the average volume  of a    |
 |      particle.                                     |
 |      typical units:  M -> [ug/m^3], d -> [g/cm^3]  |
 |                      r -> [um]                     |
 |      Lidar ratio= 4 pi Qe / phase_fct(180)*Qs      |
 |----------------------------------------------------|
