 |--------|------------|
 | ANGLE  |  PHASE FCT |
 |--------|------------|
     0.00   47.356    
     1.00   46.958    
     2.00   45.793    
     3.00   43.947    
     4.00   41.546    
     5.00   38.739    
     6.00   35.674    
     7.00   32.491    
     8.00   29.308    
     9.00   26.218    
    10.00   23.290    
    11.00   20.569    
    12.00   18.082    
    13.00   15.838    
    14.00   13.838    
    15.00   12.071    
    16.00   10.522    
    17.00   9.1746    
    18.00   8.0075    
    19.00   7.0015    
    20.00   6.1372    
    21.00   5.3965    
    22.00   4.7628    
    23.00   4.2212    
    24.00   3.7583    
    25.00   3.3625    
    26.00   3.0236    
    27.00   2.7329    
    28.00   2.4829    
    29.00   2.2672    
    30.00   2.0804    
    31.00   1.9180    
    32.00   1.7761    
    33.00   1.6515    
    34.00   1.5416    
    35.00   1.4440    
    36.00   1.3569    
    37.00   1.2787    
    38.00   1.2082    
    39.00   1.1442    
    40.00   1.0859    
    41.00   1.0325    
    42.00  0.98332    
    43.00  0.93789    
    44.00  0.89574    
    45.00  0.85651    
    46.00  0.81988    
    47.00  0.78558    
    48.00  0.75339    
    49.00  0.72310    
    50.00  0.69456    
    51.00  0.66760    
    52.00  0.64211    
    53.00  0.61798    
    54.00  0.59510    
    55.00  0.57339    
    56.00  0.55277    
    57.00  0.53318    
    58.00  0.51454    
    59.00  0.49681    
    60.00  0.47993    
    61.00  0.46385    
    62.00  0.44854    
    63.00  0.43394    
    64.00  0.42002    
    65.00  0.40675    
    66.00  0.39410    
    67.00  0.38205    
    68.00  0.37054    
    69.00  0.35957    
    70.00  0.34911    
    71.00  0.33914    
    72.00  0.32963    
    73.00  0.32057    
    74.00  0.31193    
    75.00  0.30370    
    76.00  0.29586    
    77.00  0.28839    
    78.00  0.28129    
    79.00  0.27453    
    80.00  0.26810    
    81.00  0.26200    
    82.00  0.25619    
    83.00  0.25069    
    84.00  0.24547    
    85.00  0.24052    
    86.00  0.23584    
    87.00  0.23141    
    88.00  0.22722    
    89.00  0.22328    
    90.00  0.21956    
    91.00  0.21606    
    92.00  0.21277    
    93.00  0.20969    
    94.00  0.20681    
    95.00  0.20412    
    96.00  0.20162    
    97.00  0.19929    
    98.00  0.19714    
    99.00  0.19516    
   100.00  0.19333    
   101.00  0.19166    
   102.00  0.19015    
   103.00  0.18878    
   104.00  0.18755    
   105.00  0.18646    
   106.00  0.18550    
   107.00  0.18467    
   108.00  0.18396    
   109.00  0.18337    
   110.00  0.18290    
   111.00  0.18254    
   112.00  0.18229    
   113.00  0.18214    
   114.00  0.18210    
   115.00  0.18215    
   116.00  0.18231    
   117.00  0.18255    
   118.00  0.18288    
   119.00  0.18331    
   120.00  0.18382    
   121.00  0.18441    
   122.00  0.18509    
   123.00  0.18584    
   124.00  0.18668    
   125.00  0.18760    
   126.00  0.18859    
   127.00  0.18967    
   128.00  0.19082    
   129.00  0.19205    
   130.00  0.19335    
   131.00  0.19474    
   132.00  0.19621    
   133.00  0.19776    
   134.00  0.19939    
   135.00  0.20110    
   136.00  0.20289    
   137.00  0.20477    
   138.00  0.20673    
   139.00  0.20877    
   140.00  0.21089    
   141.00  0.21308    
   142.00  0.21533    
   143.00  0.21763    
   144.00  0.21997    
   145.00  0.22233    
   146.00  0.22469    
   147.00  0.22702    
   148.00  0.22929    
   149.00  0.23147    
   150.00  0.23350    
   151.00  0.23536    
   152.00  0.23699    
   153.00  0.23834    
   154.00  0.23938    
   155.00  0.24006    
   156.00  0.24036    
   157.00  0.24026    
   158.00  0.23975    
   159.00  0.23886    
   160.00  0.23763    
   161.00  0.23613    
   162.00  0.23443    
   163.00  0.23264    
   164.00  0.23089    
   165.00  0.22931    
   166.00  0.22804    
   167.00  0.22718    
   168.00  0.22685    
   169.00  0.22712    
   170.00  0.22800    
   171.00  0.22948    
   172.00  0.23150    
   173.00  0.23393    
   174.00  0.23662    
   175.00  0.23938    
   176.00  0.24200    
   177.00  0.24429    
   178.00  0.24608    
   179.00  0.24721    
   180.00  0.24760    
 |--------|------------|
0.660000     micron = Wavelength
0.177675     = Extinction efficiency (Q)
0.658307E-01 = Scattering efficiency (Qs)
0.111844     = Absorption efficiency (Qa)
 136.982     = Lidar ratio
0.352421E-02 micron^2 = <b> = Average surface area per particle
0.626163E-03 microns^2 = Extinction cross section (C)
0.232002E-03 microns^2 = Scattering cross section (Cs)
0.394161E-03 microns^2 = Absorption cross section (Ca)
 |----------------------------------------------------|
 | COMMENTAIRES:                                      |
 |----------------------------------------------------|
 |   -Cross section / <b> should = efficiency         |
 |    is independant of the normalisation of dN/dx    |
 |   -The integral of the phase fct / 4 pi over all   |
 |    directions (solid angle) = 1.                   |
 |   -The volume coefficient (k) is equal to C * N    |
 |      = cross section * Number density              |
 |      typical units: [um^2]*[particles/cm^3] =      |
 |      [10^-3 km-1]                                  |
 |      N = M/(d*4/3*pi*r^3) where d is the density   |
 |      of particle, M is the mass per unit volume    |
 |      and 4/3*pi*r^3 is the average volume  of a    |
 |      particle.                                     |
 |      typical units:  M -> [ug/m^3], d -> [g/cm^3]  |
 |                      r -> [um]                     |
 |      Lidar ratio= 4 pi Qe / phase_fct(180)*Qs      |
 |----------------------------------------------------|
