 |--------|------------|
 | ANGLE  |  PHASE FCT |
 |--------|------------|
     0.00   33.046    
     1.00   32.869    
     2.00   32.349    
     3.00   31.510    
     4.00   30.391    
     5.00   29.039    
     6.00   27.508    
     7.00   25.852    
     8.00   24.119    
     9.00   22.357    
    10.00   20.605    
    11.00   18.894    
    12.00   17.249    
    13.00   15.688    
    14.00   14.224    
    15.00   12.863    
    16.00   11.609    
    17.00   10.462    
    18.00   9.4180    
    19.00   8.4740    
    20.00   7.6235    
    21.00   6.8602    
    22.00   6.1774    
    23.00   5.5680    
    24.00   5.0252    
    25.00   4.5424    
    26.00   4.1135    
    27.00   3.7327    
    28.00   3.3946    
    29.00   3.0944    
    30.00   2.8276    
    31.00   2.5904    
    32.00   2.3793    
    33.00   2.1911    
    34.00   2.0229    
    35.00   1.8725    
    36.00   1.7376    
    37.00   1.6163    
    38.00   1.5070    
    39.00   1.4083    
    40.00   1.3189    
    41.00   1.2377    
    42.00   1.1637    
    43.00   1.0962    
    44.00   1.0343    
    45.00  0.97754    
    46.00  0.92526    
    47.00  0.87701    
    48.00  0.83237    
    49.00  0.79098    
    50.00  0.75253    
    51.00  0.71672    
    52.00  0.68331    
    53.00  0.65208    
    54.00  0.62285    
    55.00  0.59544    
    56.00  0.56971    
    57.00  0.54551    
    58.00  0.52273    
    59.00  0.50126    
    60.00  0.48100    
    61.00  0.46187    
    62.00  0.44380    
    63.00  0.42670    
    64.00  0.41052    
    65.00  0.39519    
    66.00  0.38067    
    67.00  0.36690    
    68.00  0.35385    
    69.00  0.34146    
    70.00  0.32970    
    71.00  0.31853    
    72.00  0.30793    
    73.00  0.29786    
    74.00  0.28829    
    75.00  0.27920    
    76.00  0.27057    
    77.00  0.26236    
    78.00  0.25456    
    79.00  0.24715    
    80.00  0.24011    
    81.00  0.23342    
    82.00  0.22706    
    83.00  0.22103    
    84.00  0.21530    
    85.00  0.20986    
    86.00  0.20470    
    87.00  0.19981    
    88.00  0.19517    
    89.00  0.19078    
    90.00  0.18661    
    91.00  0.18267    
    92.00  0.17895    
    93.00  0.17543    
    94.00  0.17210    
    95.00  0.16897    
    96.00  0.16602    
    97.00  0.16324    
    98.00  0.16063    
    99.00  0.15818    
   100.00  0.15588    
   101.00  0.15374    
   102.00  0.15173    
   103.00  0.14987    
   104.00  0.14814    
   105.00  0.14655    
   106.00  0.14507    
   107.00  0.14372    
   108.00  0.14249    
   109.00  0.14137    
   110.00  0.14035    
   111.00  0.13945    
   112.00  0.13865    
   113.00  0.13796    
   114.00  0.13736    
   115.00  0.13686    
   116.00  0.13645    
   117.00  0.13614    
   118.00  0.13592    
   119.00  0.13579    
   120.00  0.13575    
   121.00  0.13580    
   122.00  0.13594    
   123.00  0.13616    
   124.00  0.13647    
   125.00  0.13686    
   126.00  0.13734    
   127.00  0.13790    
   128.00  0.13855    
   129.00  0.13929    
   130.00  0.14010    
   131.00  0.14100    
   132.00  0.14198    
   133.00  0.14304    
   134.00  0.14418    
   135.00  0.14539    
   136.00  0.14666    
   137.00  0.14800    
   138.00  0.14939    
   139.00  0.15082    
   140.00  0.15229    
   141.00  0.15378    
   142.00  0.15527    
   143.00  0.15674    
   144.00  0.15817    
   145.00  0.15954    
   146.00  0.16082    
   147.00  0.16198    
   148.00  0.16299    
   149.00  0.16382    
   150.00  0.16444    
   151.00  0.16482    
   152.00  0.16494    
   153.00  0.16476    
   154.00  0.16429    
   155.00  0.16352    
   156.00  0.16244    
   157.00  0.16109    
   158.00  0.15950    
   159.00  0.15771    
   160.00  0.15578    
   161.00  0.15379    
   162.00  0.15184    
   163.00  0.15000    
   164.00  0.14838    
   165.00  0.14707    
   166.00  0.14616    
   167.00  0.14570    
   168.00  0.14574    
   169.00  0.14630    
   170.00  0.14736    
   171.00  0.14888    
   172.00  0.15078    
   173.00  0.15294    
   174.00  0.15524    
   175.00  0.15753    
   176.00  0.15966    
   177.00  0.16150    
   178.00  0.16290    
   179.00  0.16379    
   180.00  0.16409    
 |--------|------------|
0.710000     micron = Wavelength
0.158567     = Extinction efficiency (Q)
0.655177E-01 = Scattering efficiency (Qs)
0.930491E-01 = Absorption efficiency (Qa)
 185.343     = Lidar ratio
0.272779E-02 micron^2 = <b> = Average surface area per particle
0.432537E-03 microns^2 = Extinction cross section (C)
0.178718E-03 microns^2 = Scattering cross section (Cs)
0.253818E-03 microns^2 = Absorption cross section (Ca)
 |----------------------------------------------------|
 | COMMENTAIRES:                                      |
 |----------------------------------------------------|
 |   -Cross section / <b> should = efficiency         |
 |    is independant of the normalisation of dN/dx    |
 |   -The integral of the phase fct / 4 pi over all   |
 |    directions (solid angle) = 1.                   |
 |   -The volume coefficient (k) is equal to C * N    |
 |      = cross section * Number density              |
 |      typical units: [um^2]*[particles/cm^3] =      |
 |      [10^-3 km-1]                                  |
 |      N = M/(d*4/3*pi*r^3) where d is the density   |
 |      of particle, M is the mass per unit volume    |
 |      and 4/3*pi*r^3 is the average volume  of a    |
 |      particle.                                     |
 |      typical units:  M -> [ug/m^3], d -> [g/cm^3]  |
 |                      r -> [um]                     |
 |      Lidar ratio= 4 pi Qe / phase_fct(180)*Qs      |
 |----------------------------------------------------|
