 |--------|------------|
 | ANGLE  |  PHASE FCT |
 |--------|------------|
     0.00   42.748    
     1.00   42.425    
     2.00   41.479    
     3.00   39.972    
     4.00   37.999    
     5.00   35.671    
     6.00   33.104    
     7.00   30.408    
     8.00   27.680    
     9.00   24.998    
    10.00   22.424    
    11.00   20.001    
    12.00   17.757    
    13.00   15.706    
    14.00   13.853    
    15.00   12.196    
    16.00   10.724    
    17.00   9.4275    
    18.00   8.2907    
    19.00   7.2988    
    20.00   6.4368    
    21.00   5.6897    
    22.00   5.0436    
    23.00   4.4857    
    24.00   4.0043    
    25.00   3.5889    
    26.00   3.2303    
    27.00   2.9204    
    28.00   2.6521    
    29.00   2.4193    
    30.00   2.2168    
    31.00   2.0400    
    32.00   1.8852    
    33.00   1.7489    
    34.00   1.6286    
    35.00   1.5218    
    36.00   1.4265    
    37.00   1.3412    
    38.00   1.2644    
    39.00   1.1949    
    40.00   1.1317    
    41.00   1.0740    
    42.00   1.0210    
    43.00  0.97233    
    44.00  0.92728    
    45.00  0.88549    
    46.00  0.84660    
    47.00  0.81030    
    48.00  0.77632    
    49.00  0.74444    
    50.00  0.71446    
    51.00  0.68621    
    52.00  0.65956    
    53.00  0.63437    
    54.00  0.61053    
    55.00  0.58794    
    56.00  0.56651    
    57.00  0.54617    
    58.00  0.52684    
    59.00  0.50846    
    60.00  0.49098    
    61.00  0.47434    
    62.00  0.45850    
    63.00  0.44340    
    64.00  0.42902    
    65.00  0.41532    
    66.00  0.40226    
    67.00  0.38980    
    68.00  0.37792    
    69.00  0.36660    
    70.00  0.35580    
    71.00  0.34551    
    72.00  0.33569    
    73.00  0.32634    
    74.00  0.31742    
    75.00  0.30892    
    76.00  0.30083    
    77.00  0.29312    
    78.00  0.28578    
    79.00  0.27879    
    80.00  0.27215    
    81.00  0.26584    
    82.00  0.25983    
    83.00  0.25414    
    84.00  0.24873    
    85.00  0.24360    
    86.00  0.23875    
    87.00  0.23415    
    88.00  0.22980    
    89.00  0.22570    
    90.00  0.22183    
    91.00  0.21818    
    92.00  0.21475    
    93.00  0.21154    
    94.00  0.20852    
    95.00  0.20570    
    96.00  0.20306    
    97.00  0.20062    
    98.00  0.19834    
    99.00  0.19624    
   100.00  0.19430    
   101.00  0.19252    
   102.00  0.19089    
   103.00  0.18942    
   104.00  0.18808    
   105.00  0.18689    
   106.00  0.18583    
   107.00  0.18491    
   108.00  0.18411    
   109.00  0.18343    
   110.00  0.18287    
   111.00  0.18242    
   112.00  0.18209    
   113.00  0.18187    
   114.00  0.18175    
   115.00  0.18173    
   116.00  0.18182    
   117.00  0.18200    
   118.00  0.18227    
   119.00  0.18264    
   120.00  0.18310    
   121.00  0.18365    
   122.00  0.18429    
   123.00  0.18501    
   124.00  0.18582    
   125.00  0.18672    
   126.00  0.18770    
   127.00  0.18876    
   128.00  0.18992    
   129.00  0.19115    
   130.00  0.19247    
   131.00  0.19388    
   132.00  0.19538    
   133.00  0.19696    
   134.00  0.19863    
   135.00  0.20039    
   136.00  0.20223    
   137.00  0.20416    
   138.00  0.20617    
   139.00  0.20826    
   140.00  0.21041    
   141.00  0.21263    
   142.00  0.21490    
   143.00  0.21720    
   144.00  0.21951    
   145.00  0.22182    
   146.00  0.22410    
   147.00  0.22631    
   148.00  0.22843    
   149.00  0.23040    
   150.00  0.23220    
   151.00  0.23377    
   152.00  0.23508    
   153.00  0.23609    
   154.00  0.23675    
   155.00  0.23705    
   156.00  0.23696    
   157.00  0.23649    
   158.00  0.23566    
   159.00  0.23449    
   160.00  0.23304    
   161.00  0.23141    
   162.00  0.22967    
   163.00  0.22794    
   164.00  0.22636    
   165.00  0.22504    
   166.00  0.22410    
   167.00  0.22366    
   168.00  0.22379    
   169.00  0.22454    
   170.00  0.22592    
   171.00  0.22788    
   172.00  0.23033    
   173.00  0.23315    
   174.00  0.23617    
   175.00  0.23920    
   176.00  0.24203    
   177.00  0.24448    
   178.00  0.24637    
   179.00  0.24756    
   180.00  0.24796    
 |--------|------------|
0.600000     micron = Wavelength
0.171319     = Extinction efficiency (Q)
0.641229E-01 = Scattering efficiency (Qs)
0.107196     = Absorption efficiency (Qa)
 135.399     = Lidar ratio
0.272779E-02 micron^2 = <b> = Average surface area per particle
0.467321E-03 microns^2 = Extinction cross section (C)
0.174914E-03 microns^2 = Scattering cross section (Cs)
0.292407E-03 microns^2 = Absorption cross section (Ca)
 |----------------------------------------------------|
 | COMMENTAIRES:                                      |
 |----------------------------------------------------|
 |   -Cross section / <b> should = efficiency         |
 |    is independant of the normalisation of dN/dx    |
 |   -The integral of the phase fct / 4 pi over all   |
 |    directions (solid angle) = 1.                   |
 |   -The volume coefficient (k) is equal to C * N    |
 |      = cross section * Number density              |
 |      typical units: [um^2]*[particles/cm^3] =      |
 |      [10^-3 km-1]                                  |
 |      N = M/(d*4/3*pi*r^3) where d is the density   |
 |      of particle, M is the mass per unit volume    |
 |      and 4/3*pi*r^3 is the average volume  of a    |
 |      particle.                                     |
 |      typical units:  M -> [ug/m^3], d -> [g/cm^3]  |
 |                      r -> [um]                     |
 |      Lidar ratio= 4 pi Qe / phase_fct(180)*Qs      |
 |----------------------------------------------------|
