 |--------|------------|
 | ANGLE  |  PHASE FCT |
 |--------|------------|
     0.00   43.417    
     1.00   43.068    
     2.00   42.045    
     3.00   40.421    
     4.00   38.301    
     5.00   35.812    
     6.00   33.081    
     7.00   30.229    
     8.00   27.361    
     9.00   24.561    
    10.00   21.893    
    11.00   19.398    
    12.00   17.106    
    13.00   15.026    
    14.00   13.162    
    15.00   11.508    
    16.00   10.051    
    17.00   8.7783    
    18.00   7.6716    
    19.00   6.7144    
    20.00   5.8897    
    21.00   5.1812    
    22.00   4.5741    
    23.00   4.0545    
    24.00   3.6103    
    25.00   3.2306    
    26.00   2.9057    
    27.00   2.6275    
    28.00   2.3889    
    29.00   2.1836    
    30.00   2.0065    
    31.00   1.8531    
    32.00   1.7197    
    33.00   1.6031    
    34.00   1.5008    
    35.00   1.4104    
    36.00   1.3301    
    37.00   1.2584    
    38.00   1.1940    
    39.00   1.1357    
    40.00   1.0828    
    41.00   1.0344    
    42.00  0.98992    
    43.00  0.94885    
    44.00  0.91074    
    45.00  0.87525    
    46.00  0.84206    
    47.00  0.81092    
    48.00  0.78160    
    49.00  0.75393    
    50.00  0.72775    
    51.00  0.70294    
    52.00  0.67937    
    53.00  0.65694    
    54.00  0.63558    
    55.00  0.61521    
    56.00  0.59577    
    57.00  0.57719    
    58.00  0.55943    
    59.00  0.54244    
    60.00  0.52617    
    61.00  0.51060    
    62.00  0.49569    
    63.00  0.48140    
    64.00  0.46771    
    65.00  0.45459    
    66.00  0.44203    
    67.00  0.42998    
    68.00  0.41845    
    69.00  0.40739    
    70.00  0.39681    
    71.00  0.38667    
    72.00  0.37696    
    73.00  0.36767    
    74.00  0.35878    
    75.00  0.35027    
    76.00  0.34215    
    77.00  0.33438    
    78.00  0.32696    
    79.00  0.31989    
    80.00  0.31314    
    81.00  0.30670    
    82.00  0.30058    
    83.00  0.29475    
    84.00  0.28921    
    85.00  0.28394    
    86.00  0.27895    
    87.00  0.27423    
    88.00  0.26975    
    89.00  0.26553    
    90.00  0.26154    
    91.00  0.25779    
    92.00  0.25426    
    93.00  0.25096    
    94.00  0.24786    
    95.00  0.24498    
    96.00  0.24229    
    97.00  0.23980    
    98.00  0.23750    
    99.00  0.23538    
   100.00  0.23345    
   101.00  0.23168    
   102.00  0.23009    
   103.00  0.22866    
   104.00  0.22738    
   105.00  0.22626    
   106.00  0.22529    
   107.00  0.22447    
   108.00  0.22379    
   109.00  0.22324    
   110.00  0.22283    
   111.00  0.22255    
   112.00  0.22239    
   113.00  0.22236    
   114.00  0.22244    
   115.00  0.22264    
   116.00  0.22296    
   117.00  0.22339    
   118.00  0.22393    
   119.00  0.22457    
   120.00  0.22532    
   121.00  0.22617    
   122.00  0.22713    
   123.00  0.22818    
   124.00  0.22934    
   125.00  0.23060    
   126.00  0.23195    
   127.00  0.23341    
   128.00  0.23497    
   129.00  0.23664    
   130.00  0.23840    
   131.00  0.24027    
   132.00  0.24224    
   133.00  0.24431    
   134.00  0.24648    
   135.00  0.24876    
   136.00  0.25114    
   137.00  0.25361    
   138.00  0.25617    
   139.00  0.25880    
   140.00  0.26151    
   141.00  0.26427    
   142.00  0.26707    
   143.00  0.26988    
   144.00  0.27267    
   145.00  0.27542    
   146.00  0.27810    
   147.00  0.28065    
   148.00  0.28304    
   149.00  0.28523    
   150.00  0.28718    
   151.00  0.28883    
   152.00  0.29016    
   153.00  0.29113    
   154.00  0.29173    
   155.00  0.29194    
   156.00  0.29179    
   157.00  0.29131    
   158.00  0.29053    
   159.00  0.28955    
   160.00  0.28846    
   161.00  0.28738    
   162.00  0.28642    
   163.00  0.28574    
   164.00  0.28548    
   165.00  0.28575    
   166.00  0.28667    
   167.00  0.28833    
   168.00  0.29077    
   169.00  0.29398    
   170.00  0.29791    
   171.00  0.30246    
   172.00  0.30747    
   173.00  0.31273    
   174.00  0.31802    
   175.00  0.32308    
   176.00  0.32765    
   177.00  0.33151    
   178.00  0.33442    
   179.00  0.33624    
   180.00  0.33686    
 |--------|------------|
0.569000     micron = Wavelength
0.173824     = Extinction efficiency (Q)
0.639703E-01 = Scattering efficiency (Qs)
0.109854     = Absorption efficiency (Qa)
 101.367     = Lidar ratio
0.259482E-02 micron^2 = <b> = Average surface area per particle
0.451043E-03 microns^2 = Extinction cross section (C)
0.165991E-03 microns^2 = Scattering cross section (Cs)
0.285052E-03 microns^2 = Absorption cross section (Ca)
 |----------------------------------------------------|
 | COMMENTAIRES:                                      |
 |----------------------------------------------------|
 |   -Cross section / <b> should = efficiency         |
 |    is independant of the normalisation of dN/dx    |
 |   -The integral of the phase fct / 4 pi over all   |
 |    directions (solid angle) = 1.                   |
 |   -The volume coefficient (k) is equal to C * N    |
 |      = cross section * Number density              |
 |      typical units: [um^2]*[particles/cm^3] =      |
 |      [10^-3 km-1]                                  |
 |      N = M/(d*4/3*pi*r^3) where d is the density   |
 |      of particle, M is the mass per unit volume    |
 |      and 4/3*pi*r^3 is the average volume  of a    |
 |      particle.                                     |
 |      typical units:  M -> [ug/m^3], d -> [g/cm^3]  |
 |                      r -> [um]                     |
 |      Lidar ratio= 4 pi Qe / phase_fct(180)*Qs      |
 |----------------------------------------------------|
