 |--------|------------|
 | ANGLE  |  PHASE FCT |
 |--------|------------|
     0.00   84.561    
     1.00   80.995    
     2.00   71.461    
     3.00   58.743    
     4.00   45.748    
     5.00   34.379    
     6.00   25.333    
     7.00   18.545    
     8.00   13.644    
     9.00   10.202    
    10.00   7.8258    
    11.00   6.1978    
    12.00   5.0838    
    13.00   4.3183    
    14.00   3.7857    
    15.00   3.4081    
    16.00   3.1340    
    17.00   2.9293    
    18.00   2.7713    
    19.00   2.6453    
    20.00   2.5417    
    21.00   2.4539    
    22.00   2.3775    
    23.00   2.3096    
    24.00   2.2481    
    25.00   2.1917    
    26.00   2.1392    
    27.00   2.0898    
    28.00   2.0431    
    29.00   1.9984    
    30.00   1.9555    
    31.00   1.9140    
    32.00   1.8738    
    33.00   1.8347    
    34.00   1.7964    
    35.00   1.7591    
    36.00   1.7223    
    37.00   1.6863    
    38.00   1.6508    
    39.00   1.6158    
    40.00   1.5813    
    41.00   1.5473    
    42.00   1.5138    
    43.00   1.4807    
    44.00   1.4480    
    45.00   1.4158    
    46.00   1.3839    
    47.00   1.3526    
    48.00   1.3216    
    49.00   1.2911    
    50.00   1.2611    
    51.00   1.2315    
    52.00   1.2024    
    53.00   1.1737    
    54.00   1.1456    
    55.00   1.1180    
    56.00   1.0908    
    57.00   1.0642    
    58.00   1.0381    
    59.00   1.0126    
    60.00  0.98758    
    61.00  0.96311    
    62.00  0.93921    
    63.00  0.91586    
    64.00  0.89308    
    65.00  0.87087    
    66.00  0.84922    
    67.00  0.82816    
    68.00  0.80766    
    69.00  0.78774    
    70.00  0.76839    
    71.00  0.74962    
    72.00  0.73141    
    73.00  0.71378    
    74.00  0.69672    
    75.00  0.68022    
    76.00  0.66427    
    77.00  0.64889    
    78.00  0.63405    
    79.00  0.61975    
    80.00  0.60600    
    81.00  0.59277    
    82.00  0.58007    
    83.00  0.56788    
    84.00  0.55621    
    85.00  0.54503    
    86.00  0.53435    
    87.00  0.52415    
    88.00  0.51442    
    89.00  0.50516    
    90.00  0.49635    
    91.00  0.48800    
    92.00  0.48007    
    93.00  0.47258    
    94.00  0.46550    
    95.00  0.45883    
    96.00  0.45255    
    97.00  0.44666    
    98.00  0.44115    
    99.00  0.43600    
   100.00  0.43121    
   101.00  0.42676    
   102.00  0.42265    
   103.00  0.41886    
   104.00  0.41538    
   105.00  0.41221    
   106.00  0.40934    
   107.00  0.40675    
   108.00  0.40443    
   109.00  0.40237    
   110.00  0.40057    
   111.00  0.39902    
   112.00  0.39770    
   113.00  0.39661    
   114.00  0.39573    
   115.00  0.39507    
   116.00  0.39460    
   117.00  0.39432    
   118.00  0.39422    
   119.00  0.39429    
   120.00  0.39453    
   121.00  0.39493    
   122.00  0.39547    
   123.00  0.39615    
   124.00  0.39696    
   125.00  0.39790    
   126.00  0.39895    
   127.00  0.40012    
   128.00  0.40138    
   129.00  0.40274    
   130.00  0.40419    
   131.00  0.40572    
   132.00  0.40732    
   133.00  0.40899    
   134.00  0.41073    
   135.00  0.41252    
   136.00  0.41436    
   137.00  0.41624    
   138.00  0.41816    
   139.00  0.42011    
   140.00  0.42209    
   141.00  0.42409    
   142.00  0.42611    
   143.00  0.42814    
   144.00  0.43019    
   145.00  0.43223    
   146.00  0.43428    
   147.00  0.43632    
   148.00  0.43836    
   149.00  0.44039    
   150.00  0.44241    
   151.00  0.44443    
   152.00  0.44642    
   153.00  0.44840    
   154.00  0.45036    
   155.00  0.45229    
   156.00  0.45418    
   157.00  0.45603    
   158.00  0.45782    
   159.00  0.45955    
   160.00  0.46119    
   161.00  0.46273    
   162.00  0.46415    
   163.00  0.46546    
   164.00  0.46665    
   165.00  0.46771    
   166.00  0.46867    
   167.00  0.46953    
   168.00  0.47033    
   169.00  0.47109    
   170.00  0.47183    
   171.00  0.47258    
   172.00  0.47335    
   173.00  0.47415    
   174.00  0.47495    
   175.00  0.47574    
   176.00  0.47647    
   177.00  0.47711    
   178.00  0.47760    
   179.00  0.47791    
   180.00  0.47802    
 |--------|------------|
0.500000     micron = Wavelength
0.436059     = Extinction efficiency (Q)
0.191637     = Scattering efficiency (Qs)
0.244422     = Absorption efficiency (Qa)
 59.8179     = Lidar ratio
0.100544E-01 micron^2 = <b> = Average surface area per particle
0.438430E-02 microns^2 = Extinction cross section (C)
0.192679E-02 microns^2 = Scattering cross section (Cs)
0.245751E-02 microns^2 = Absorption cross section (Ca)
 |----------------------------------------------------|
 | COMMENTAIRES:                                      |
 |----------------------------------------------------|
 |   -Cross section / <b> should = efficiency         |
 |    is independant of the normalisation of dN/dx    |
 |   -The integral of the phase fct / 4 pi over all   |
 |    directions (solid angle) = 1.                   |
 |   -The volume coefficient (k) is equal to C * N    |
 |      = cross section * Number density              |
 |      typical units: [um^2]*[particles/cm^3] =      |
 |      [10^-3 km-1]                                  |
 |      N = M/(d*4/3*pi*r^3) where d is the density   |
 |      of particle, M is the mass per unit volume    |
 |      and 4/3*pi*r^3 is the average volume  of a    |
 |      particle.                                     |
 |      typical units:  M -> [ug/m^3], d -> [g/cm^3]  |
 |                      r -> [um]                     |
 |      Lidar ratio= 4 pi Qe / phase_fct(180)*Qs      |
 |----------------------------------------------------|
