 |--------|------------|
 | ANGLE  |  PHASE FCT |
 |--------|------------|
     0.00   123.07    
     1.00   117.98    
     2.00   104.30    
     3.00   85.964    
     4.00   67.073    
     5.00   50.376    
     6.00   36.951    
     7.00   26.772    
     8.00   19.353    
     9.00   14.096    
    10.00   10.438    
    11.00   7.9169    
    12.00   6.1845    
    13.00   4.9923    
    14.00   4.1648    
    15.00   3.5819    
    16.00   3.1638    
    17.00   2.8569    
    18.00   2.6254    
    19.00   2.4457    
    20.00   2.3024    
    21.00   2.1850    
    22.00   2.0864    
    23.00   2.0018    
    24.00   1.9279    
    25.00   1.8624    
    26.00   1.8034    
    27.00   1.7498    
    28.00   1.7005    
    29.00   1.6548    
    30.00   1.6122    
    31.00   1.5721    
    32.00   1.5341    
    33.00   1.4980    
    34.00   1.4635    
    35.00   1.4304    
    36.00   1.3984    
    37.00   1.3675    
    38.00   1.3375    
    39.00   1.3083    
    40.00   1.2799    
    41.00   1.2521    
    42.00   1.2249    
    43.00   1.1983    
    44.00   1.1723    
    45.00   1.1467    
    46.00   1.1216    
    47.00   1.0969    
    48.00   1.0727    
    49.00   1.0490    
    50.00   1.0256    
    51.00   1.0027    
    52.00  0.98016    
    53.00  0.95805    
    54.00  0.93636    
    55.00  0.91508    
    56.00  0.89421    
    57.00  0.87375    
    58.00  0.85372    
    59.00  0.83412    
    60.00  0.81493    
    61.00  0.79618    
    62.00  0.77785    
    63.00  0.75996    
    64.00  0.74251    
    65.00  0.72549    
    66.00  0.70891    
    67.00  0.69277    
    68.00  0.67707    
    69.00  0.66182    
    70.00  0.64701    
    71.00  0.63264    
    72.00  0.61871    
    73.00  0.60523    
    74.00  0.59218    
    75.00  0.57957    
    76.00  0.56740    
    77.00  0.55565    
    78.00  0.54434    
    79.00  0.53346    
    80.00  0.52299    
    81.00  0.51295    
    82.00  0.50331    
    83.00  0.49409    
    84.00  0.48527    
    85.00  0.47685    
    86.00  0.46881    
    87.00  0.46117    
    88.00  0.45391    
    89.00  0.44702    
    90.00  0.44049    
    91.00  0.43433    
    92.00  0.42852    
    93.00  0.42306    
    94.00  0.41793    
    95.00  0.41314    
    96.00  0.40867    
    97.00  0.40452    
    98.00  0.40067    
    99.00  0.39713    
   100.00  0.39388    
   101.00  0.39091    
   102.00  0.38822    
   103.00  0.38579    
   104.00  0.38363    
   105.00  0.38172    
   106.00  0.38006    
   107.00  0.37863    
   108.00  0.37743    
   109.00  0.37645    
   110.00  0.37568    
   111.00  0.37512    
   112.00  0.37475    
   113.00  0.37457    
   114.00  0.37458    
   115.00  0.37475    
   116.00  0.37510    
   117.00  0.37560    
   118.00  0.37625    
   119.00  0.37704    
   120.00  0.37797    
   121.00  0.37903    
   122.00  0.38021    
   123.00  0.38151    
   124.00  0.38291    
   125.00  0.38441    
   126.00  0.38601    
   127.00  0.38770    
   128.00  0.38947    
   129.00  0.39132    
   130.00  0.39323    
   131.00  0.39521    
   132.00  0.39724    
   133.00  0.39933    
   134.00  0.40146    
   135.00  0.40363    
   136.00  0.40584    
   137.00  0.40807    
   138.00  0.41033    
   139.00  0.41261    
   140.00  0.41491    
   141.00  0.41721    
   142.00  0.41952    
   143.00  0.42183    
   144.00  0.42415    
   145.00  0.42645    
   146.00  0.42875    
   147.00  0.43105    
   148.00  0.43333    
   149.00  0.43561    
   150.00  0.43788    
   151.00  0.44013    
   152.00  0.44238    
   153.00  0.44461    
   154.00  0.44682    
   155.00  0.44901    
   156.00  0.45117    
   157.00  0.45328    
   158.00  0.45532    
   159.00  0.45728    
   160.00  0.45913    
   161.00  0.46084    
   162.00  0.46239    
   163.00  0.46376    
   164.00  0.46495    
   165.00  0.46596    
   166.00  0.46681    
   167.00  0.46753    
   168.00  0.46817    
   169.00  0.46878    
   170.00  0.46942    
   171.00  0.47012    
   172.00  0.47092    
   173.00  0.47183    
   174.00  0.47282    
   175.00  0.47386    
   176.00  0.47487    
   177.00  0.47578    
   178.00  0.47650    
   179.00  0.47697    
   180.00  0.47713    
 |--------|------------|
0.690000     micron = Wavelength
0.370299     = Extinction efficiency (Q)
0.152755     = Scattering efficiency (Qs)
0.217544     = Absorption efficiency (Qa)
 63.8456     = Lidar ratio
0.151671E-01 micron^2 = <b> = Average surface area per particle
0.561636E-02 microns^2 = Extinction cross section (C)
0.231685E-02 microns^2 = Scattering cross section (Cs)
0.329952E-02 microns^2 = Absorption cross section (Ca)
 |----------------------------------------------------|
 | COMMENTAIRES:                                      |
 |----------------------------------------------------|
 |   -Cross section / <b> should = efficiency         |
 |    is independant of the normalisation of dN/dx    |
 |   -The integral of the phase fct / 4 pi over all   |
 |    directions (solid angle) = 1.                   |
 |   -The volume coefficient (k) is equal to C * N    |
 |      = cross section * Number density              |
 |      typical units: [um^2]*[particles/cm^3] =      |
 |      [10^-3 km-1]                                  |
 |      N = M/(d*4/3*pi*r^3) where d is the density   |
 |      of particle, M is the mass per unit volume    |
 |      and 4/3*pi*r^3 is the average volume  of a    |
 |      particle.                                     |
 |      typical units:  M -> [ug/m^3], d -> [g/cm^3]  |
 |                      r -> [um]                     |
 |      Lidar ratio= 4 pi Qe / phase_fct(180)*Qs      |
 |----------------------------------------------------|
