 |--------|------------|
 | ANGLE  |  PHASE FCT |
 |--------|------------|
     0.00   38.358    
     1.00   38.099    
     2.00   37.337    
     3.00   36.118    
     4.00   34.510    
     5.00   32.596    
     6.00   30.465    
     7.00   28.203    
     8.00   25.886    
     9.00   23.580    
    10.00   21.340    
    11.00   19.204    
    12.00   17.200    
    13.00   15.345    
    14.00   13.648    
    15.00   12.111    
    16.00   10.730    
    17.00   9.4980    
    18.00   8.4058    
    19.00   7.4423    
    20.00   6.5959    
    21.00   5.8551    
    22.00   5.2083    
    23.00   4.6449    
    24.00   4.1549    
    25.00   3.7290    
    26.00   3.3589    
    27.00   3.0373    
    28.00   2.7576    
    29.00   2.5139    
    30.00   2.3014    
    31.00   2.1155    
    32.00   1.9526    
    33.00   1.8092    
    34.00   1.6827    
    35.00   1.5706    
    36.00   1.4709    
    37.00   1.3818    
    38.00   1.3019    
    39.00   1.2298    
    40.00   1.1645    
    41.00   1.1052    
    42.00   1.0509    
    43.00   1.0012    
    44.00  0.95531    
    45.00  0.91290    
    46.00  0.87355    
    47.00  0.83690    
    48.00  0.80266    
    49.00  0.77058    
    50.00  0.74045    
    51.00  0.71209    
    52.00  0.68533    
    53.00  0.66004    
    54.00  0.63610    
    55.00  0.61340    
    56.00  0.59185    
    57.00  0.57138    
    58.00  0.55189    
    59.00  0.53335    
    60.00  0.51568    
    61.00  0.49883    
    62.00  0.48276    
    63.00  0.46742    
    64.00  0.45278    
    65.00  0.43880    
    66.00  0.42544    
    67.00  0.41269    
    68.00  0.40049    
    69.00  0.38885    
    70.00  0.37772    
    71.00  0.36708    
    72.00  0.35693    
    73.00  0.34722    
    74.00  0.33795    
    75.00  0.32910    
    76.00  0.32064    
    77.00  0.31258    
    78.00  0.30488    
    79.00  0.29754    
    80.00  0.29054    
    81.00  0.28387    
    82.00  0.27752    
    83.00  0.27147    
    84.00  0.26572    
    85.00  0.26026    
    86.00  0.25507    
    87.00  0.25014    
    88.00  0.24547    
    89.00  0.24105    
    90.00  0.23686    
    91.00  0.23291    
    92.00  0.22917    
    93.00  0.22566    
    94.00  0.22235    
    95.00  0.21924    
    96.00  0.21633    
    97.00  0.21361    
    98.00  0.21107    
    99.00  0.20871    
   100.00  0.20652    
   101.00  0.20449    
   102.00  0.20263    
   103.00  0.20092    
   104.00  0.19936    
   105.00  0.19795    
   106.00  0.19669    
   107.00  0.19556    
   108.00  0.19457    
   109.00  0.19371    
   110.00  0.19297    
   111.00  0.19237    
   112.00  0.19188    
   113.00  0.19151    
   114.00  0.19126    
   115.00  0.19112    
   116.00  0.19109    
   117.00  0.19117    
   118.00  0.19136    
   119.00  0.19166    
   120.00  0.19206    
   121.00  0.19257    
   122.00  0.19318    
   123.00  0.19390    
   124.00  0.19472    
   125.00  0.19564    
   126.00  0.19667    
   127.00  0.19780    
   128.00  0.19904    
   129.00  0.20038    
   130.00  0.20183    
   131.00  0.20339    
   132.00  0.20505    
   133.00  0.20681    
   134.00  0.20868    
   135.00  0.21064    
   136.00  0.21269    
   137.00  0.21483    
   138.00  0.21704    
   139.00  0.21932    
   140.00  0.22165    
   141.00  0.22400    
   142.00  0.22636    
   143.00  0.22871    
   144.00  0.23101    
   145.00  0.23322    
   146.00  0.23532    
   147.00  0.23727    
   148.00  0.23902    
   149.00  0.24053    
   150.00  0.24177    
   151.00  0.24269    
   152.00  0.24328    
   153.00  0.24351    
   154.00  0.24338    
   155.00  0.24289    
   156.00  0.24207    
   157.00  0.24095    
   158.00  0.23962    
   159.00  0.23813    
   160.00  0.23660    
   161.00  0.23515    
   162.00  0.23390    
   163.00  0.23298    
   164.00  0.23251    
   165.00  0.23263    
   166.00  0.23341    
   167.00  0.23493    
   168.00  0.23722    
   169.00  0.24025    
   170.00  0.24397    
   171.00  0.24827    
   172.00  0.25300    
   173.00  0.25795    
   174.00  0.26292    
   175.00  0.26766    
   176.00  0.27194    
   177.00  0.27553    
   178.00  0.27825    
   179.00  0.27994    
   180.00  0.28051    
 |--------|------------|
0.620000     micron = Wavelength
0.165760     = Extinction efficiency (Q)
0.636026E-01 = Scattering efficiency (Qs)
0.102158     = Absorption efficiency (Qa)
 116.752     = Lidar ratio
0.259482E-02 micron^2 = <b> = Average surface area per particle
0.430117E-03 microns^2 = Extinction cross section (C)
0.165037E-03 microns^2 = Scattering cross section (Cs)
0.265080E-03 microns^2 = Absorption cross section (Ca)
 |----------------------------------------------------|
 | COMMENTAIRES:                                      |
 |----------------------------------------------------|
 |   -Cross section / <b> should = efficiency         |
 |    is independant of the normalisation of dN/dx    |
 |   -The integral of the phase fct / 4 pi over all   |
 |    directions (solid angle) = 1.                   |
 |   -The volume coefficient (k) is equal to C * N    |
 |      = cross section * Number density              |
 |      typical units: [um^2]*[particles/cm^3] =      |
 |      [10^-3 km-1]                                  |
 |      N = M/(d*4/3*pi*r^3) where d is the density   |
 |      of particle, M is the mass per unit volume    |
 |      and 4/3*pi*r^3 is the average volume  of a    |
 |      particle.                                     |
 |      typical units:  M -> [ug/m^3], d -> [g/cm^3]  |
 |                      r -> [um]                     |
 |      Lidar ratio= 4 pi Qe / phase_fct(180)*Qs      |
 |----------------------------------------------------|
