 |--------|------------|
 | ANGLE  |  PHASE FCT |
 |--------|------------|
     0.00   108.98    
     1.00   102.01    
     2.00   84.152    
     3.00   62.324    
     4.00   42.805    
     5.00   28.416    
     6.00   18.922    
     7.00   12.942    
     8.00   9.2484    
     9.00   7.0062    
    10.00   5.6465    
    11.00   4.7981    
    12.00   4.2509    
    13.00   3.8866    
    14.00   3.6303    
    15.00   3.4382    
    16.00   3.2883    
    17.00   3.1666    
    18.00   3.0632    
    19.00   2.9726    
    20.00   2.8921    
    21.00   2.8190    
    22.00   2.7510    
    23.00   2.6875    
    24.00   2.6276    
    25.00   2.5702    
    26.00   2.5149    
    27.00   2.4614    
    28.00   2.4094    
    29.00   2.3584    
    30.00   2.3084    
    31.00   2.2593    
    32.00   2.2108    
    33.00   2.1629    
    34.00   2.1156    
    35.00   2.0688    
    36.00   2.0225    
    37.00   1.9766    
    38.00   1.9312    
    39.00   1.8863    
    40.00   1.8418    
    41.00   1.7978    
    42.00   1.7544    
    43.00   1.7114    
    44.00   1.6689    
    45.00   1.6271    
    46.00   1.5858    
    47.00   1.5450    
    48.00   1.5049    
    49.00   1.4655    
    50.00   1.4267    
    51.00   1.3885    
    52.00   1.3510    
    53.00   1.3143    
    54.00   1.2783    
    55.00   1.2429    
    56.00   1.2084    
    57.00   1.1746    
    58.00   1.1415    
    59.00   1.1092    
    60.00   1.0777    
    61.00   1.0470    
    62.00   1.0170    
    63.00  0.98784    
    64.00  0.95945    
    65.00  0.93183    
    66.00  0.90501    
    67.00  0.87894    
    68.00  0.85366    
    69.00  0.82914    
    70.00  0.80538    
    71.00  0.78238    
    72.00  0.76012    
    73.00  0.73860    
    74.00  0.71781    
    75.00  0.69773    
    76.00  0.67836    
    77.00  0.65969    
    78.00  0.64170    
    79.00  0.62438    
    80.00  0.60773    
    81.00  0.59172    
    82.00  0.57635    
    83.00  0.56159    
    84.00  0.54745    
    85.00  0.53390    
    86.00  0.52092    
    87.00  0.50852    
    88.00  0.49666    
    89.00  0.48534    
    90.00  0.47455    
    91.00  0.46427    
    92.00  0.45448    
    93.00  0.44517    
    94.00  0.43633    
    95.00  0.42795    
    96.00  0.42000    
    97.00  0.41249    
    98.00  0.40538    
    99.00  0.39868    
   100.00  0.39236    
   101.00  0.38642    
   102.00  0.38084    
   103.00  0.37562    
   104.00  0.37073    
   105.00  0.36616    
   106.00  0.36191    
   107.00  0.35796    
   108.00  0.35431    
   109.00  0.35093    
   110.00  0.34783    
   111.00  0.34498    
   112.00  0.34238    
   113.00  0.34003    
   114.00  0.33790    
   115.00  0.33599    
   116.00  0.33429    
   117.00  0.33279    
   118.00  0.33148    
   119.00  0.33036    
   120.00  0.32941    
   121.00  0.32863    
   122.00  0.32801    
   123.00  0.32754    
   124.00  0.32721    
   125.00  0.32702    
   126.00  0.32695    
   127.00  0.32701    
   128.00  0.32718    
   129.00  0.32746    
   130.00  0.32785    
   131.00  0.32832    
   132.00  0.32889    
   133.00  0.32954    
   134.00  0.33026    
   135.00  0.33106    
   136.00  0.33192    
   137.00  0.33284    
   138.00  0.33382    
   139.00  0.33484    
   140.00  0.33592    
   141.00  0.33703    
   142.00  0.33817    
   143.00  0.33935    
   144.00  0.34055    
   145.00  0.34177    
   146.00  0.34301    
   147.00  0.34426    
   148.00  0.34552    
   149.00  0.34679    
   150.00  0.34806    
   151.00  0.34933    
   152.00  0.35059    
   153.00  0.35185    
   154.00  0.35310    
   155.00  0.35434    
   156.00  0.35556    
   157.00  0.35676    
   158.00  0.35794    
   159.00  0.35909    
   160.00  0.36021    
   161.00  0.36129    
   162.00  0.36232    
   163.00  0.36329    
   164.00  0.36420    
   165.00  0.36505    
   166.00  0.36584    
   167.00  0.36656    
   168.00  0.36723    
   169.00  0.36785    
   170.00  0.36843    
   171.00  0.36898    
   172.00  0.36950    
   173.00  0.36999    
   174.00  0.37046    
   175.00  0.37089    
   176.00  0.37128    
   177.00  0.37160    
   178.00  0.37185    
   179.00  0.37201    
   180.00  0.37206    
 |--------|------------|
0.510000     micron = Wavelength
0.591306     = Extinction efficiency (Q)
0.290790     = Scattering efficiency (Qs)
0.300517     = Absorption efficiency (Qa)
 68.6798     = Lidar ratio
0.151607E-01 micron^2 = <b> = Average surface area per particle
0.896464E-02 microns^2 = Extinction cross section (C)
0.440859E-02 microns^2 = Scattering cross section (Cs)
0.455606E-02 microns^2 = Absorption cross section (Ca)
 |----------------------------------------------------|
 | COMMENTAIRES:                                      |
 |----------------------------------------------------|
 |   -Cross section / <b> should = efficiency         |
 |    is independant of the normalisation of dN/dx    |
 |   -The integral of the phase fct / 4 pi over all   |
 |    directions (solid angle) = 1.                   |
 |   -The volume coefficient (k) is equal to C * N    |
 |      = cross section * Number density              |
 |      typical units: [um^2]*[particles/cm^3] =      |
 |      [10^-3 km-1]                                  |
 |      N = M/(d*4/3*pi*r^3) where d is the density   |
 |      of particle, M is the mass per unit volume    |
 |      and 4/3*pi*r^3 is the average volume  of a    |
 |      particle.                                     |
 |      typical units:  M -> [ug/m^3], d -> [g/cm^3]  |
 |                      r -> [um]                     |
 |      Lidar ratio= 4 pi Qe / phase_fct(180)*Qs      |
 |----------------------------------------------------|
