 |--------|------------|
 | ANGLE  |  PHASE FCT |
 |--------|------------|
     0.00   52.504    
     1.00   51.913    
     2.00   50.202    
     3.00   47.532    
     4.00   44.137    
     5.00   40.273    
     6.00   36.185    
     7.00   32.081    
     8.00   28.123    
     9.00   24.423    
    10.00   21.048    
    11.00   18.032    
    12.00   15.382    
    13.00   13.084    
    14.00   11.114    
    15.00   9.4405    
    16.00   8.0302    
    17.00   6.8489    
    18.00   5.8643    
    19.00   5.0469    
    20.00   4.3698    
    21.00   3.8101    
    22.00   3.3476    
    23.00   2.9653    
    24.00   2.6490    
    25.00   2.3866    
    26.00   2.1682    
    27.00   1.9856    
    28.00   1.8322    
    29.00   1.7025    
    30.00   1.5921    
    31.00   1.4973    
    32.00   1.4153    
    33.00   1.3437    
    34.00   1.2805    
    35.00   1.2244    
    36.00   1.1741    
    37.00   1.1285    
    38.00   1.0869    
    39.00   1.0487    
    40.00   1.0133    
    41.00  0.98033    
    42.00  0.94944    
    43.00  0.92036    
    44.00  0.89287    
    45.00  0.86678    
    46.00  0.84195    
    47.00  0.81825    
    48.00  0.79558    
    49.00  0.77385    
    50.00  0.75299    
    51.00  0.73294    
    52.00  0.71365    
    53.00  0.69506    
    54.00  0.67715    
    55.00  0.65987    
    56.00  0.64321    
    57.00  0.62712    
    58.00  0.61159    
    59.00  0.59659    
    60.00  0.58211    
    61.00  0.56812    
    62.00  0.55462    
    63.00  0.54159    
    64.00  0.52901    
    65.00  0.51686    
    66.00  0.50515    
    67.00  0.49385    
    68.00  0.48296    
    69.00  0.47247    
    70.00  0.46236    
    71.00  0.45263    
    72.00  0.44328    
    73.00  0.43428    
    74.00  0.42564    
    75.00  0.41735    
    76.00  0.40940    
    77.00  0.40179    
    78.00  0.39450    
    79.00  0.38753    
    80.00  0.38087    
    81.00  0.37453    
    82.00  0.36848    
    83.00  0.36274    
    84.00  0.35728    
    85.00  0.35211    
    86.00  0.34722    
    87.00  0.34261    
    88.00  0.33826    
    89.00  0.33418    
    90.00  0.33035    
    91.00  0.32678    
    92.00  0.32346    
    93.00  0.32037    
    94.00  0.31753    
    95.00  0.31492    
    96.00  0.31253    
    97.00  0.31037    
    98.00  0.30842    
    99.00  0.30668    
   100.00  0.30515    
   101.00  0.30382    
   102.00  0.30269    
   103.00  0.30174    
   104.00  0.30099    
   105.00  0.30041    
   106.00  0.30001    
   107.00  0.29978    
   108.00  0.29971    
   109.00  0.29980    
   110.00  0.30005    
   111.00  0.30045    
   112.00  0.30100    
   113.00  0.30168    
   114.00  0.30250    
   115.00  0.30346    
   116.00  0.30453    
   117.00  0.30574    
   118.00  0.30705    
   119.00  0.30849    
   120.00  0.31003    
   121.00  0.31168    
   122.00  0.31343    
   123.00  0.31528    
   124.00  0.31723    
   125.00  0.31927    
   126.00  0.32140    
   127.00  0.32362    
   128.00  0.32592    
   129.00  0.32831    
   130.00  0.33079    
   131.00  0.33335    
   132.00  0.33599    
   133.00  0.33872    
   134.00  0.34153    
   135.00  0.34442    
   136.00  0.34740    
   137.00  0.35046    
   138.00  0.35359    
   139.00  0.35681    
   140.00  0.36009    
   141.00  0.36345    
   142.00  0.36685    
   143.00  0.37031    
   144.00  0.37379    
   145.00  0.37728    
   146.00  0.38075    
   147.00  0.38417    
   148.00  0.38752    
   149.00  0.39074    
   150.00  0.39381    
   151.00  0.39668    
   152.00  0.39930    
   153.00  0.40164    
   154.00  0.40367    
   155.00  0.40536    
   156.00  0.40670    
   157.00  0.40769    
   158.00  0.40836    
   159.00  0.40875    
   160.00  0.40894    
   161.00  0.40901    
   162.00  0.40906    
   163.00  0.40922    
   164.00  0.40961    
   165.00  0.41036    
   166.00  0.41159    
   167.00  0.41338    
   168.00  0.41581    
   169.00  0.41888    
   170.00  0.42257    
   171.00  0.42680    
   172.00  0.43145    
   173.00  0.43634    
   174.00  0.44126    
   175.00  0.44599    
   176.00  0.45027    
   177.00  0.45389    
   178.00  0.45663    
   179.00  0.45834    
   180.00  0.45892    
 |--------|------------|
0.480000     micron = Wavelength
0.198775     = Extinction efficiency (Q)
0.697582E-01 = Scattering efficiency (Qs)
0.129016     = Absorption efficiency (Qa)
 78.0258     = Lidar ratio
0.259481E-02 micron^2 = <b> = Average surface area per particle
0.515783E-03 microns^2 = Extinction cross section (C)
0.181009E-03 microns^2 = Scattering cross section (Cs)
0.334774E-03 microns^2 = Absorption cross section (Ca)
 |----------------------------------------------------|
 | COMMENTAIRES:                                      |
 |----------------------------------------------------|
 |   -Cross section / <b> should = efficiency         |
 |    is independant of the normalisation of dN/dx    |
 |   -The integral of the phase fct / 4 pi over all   |
 |    directions (solid angle) = 1.                   |
 |   -The volume coefficient (k) is equal to C * N    |
 |      = cross section * Number density              |
 |      typical units: [um^2]*[particles/cm^3] =      |
 |      [10^-3 km-1]                                  |
 |      N = M/(d*4/3*pi*r^3) where d is the density   |
 |      of particle, M is the mass per unit volume    |
 |      and 4/3*pi*r^3 is the average volume  of a    |
 |      particle.                                     |
 |      typical units:  M -> [ug/m^3], d -> [g/cm^3]  |
 |                      r -> [um]                     |
 |      Lidar ratio= 4 pi Qe / phase_fct(180)*Qs      |
 |----------------------------------------------------|
