 |--------|------------|
 | ANGLE  |  PHASE FCT |
 |--------|------------|
     0.00   68.829    
     1.00   67.436    
     2.00   63.503    
     3.00   57.667    
     4.00   50.740    
     5.00   43.484    
     6.00   36.485    
     7.00   30.110    
     8.00   24.548    
     9.00   19.850    
    10.00   15.977    
    11.00   12.848    
    12.00   10.355    
    13.00   8.3919    
    14.00   6.8589    
    15.00   5.6686    
    16.00   4.7477    
    17.00   4.0362    
    18.00   3.4860    
    19.00   3.0595    
    20.00   2.7270    
    21.00   2.4661    
    22.00   2.2594    
    23.00   2.0939    
    24.00   1.9596    
    25.00   1.8491    
    26.00   1.7567    
    27.00   1.6782    
    28.00   1.6104    
    29.00   1.5510    
    30.00   1.4981    
    31.00   1.4505    
    32.00   1.4070    
    33.00   1.3670    
    34.00   1.3297    
    35.00   1.2947    
    36.00   1.2617    
    37.00   1.2303    
    38.00   1.2004    
    39.00   1.1717    
    40.00   1.1441    
    41.00   1.1175    
    42.00   1.0918    
    43.00   1.0669    
    44.00   1.0428    
    45.00   1.0193    
    46.00  0.99653    
    47.00  0.97433    
    48.00  0.95268    
    49.00  0.93158    
    50.00  0.91099    
    51.00  0.89090    
    52.00  0.87130    
    53.00  0.85216    
    54.00  0.83348    
    55.00  0.81523    
    56.00  0.79742    
    57.00  0.78004    
    58.00  0.76308    
    59.00  0.74654    
    60.00  0.73041    
    61.00  0.71469    
    62.00  0.69938    
    63.00  0.68447    
    64.00  0.66996    
    65.00  0.65585    
    66.00  0.64213    
    67.00  0.62881    
    68.00  0.61589    
    69.00  0.60335    
    70.00  0.59121    
    71.00  0.57945    
    72.00  0.56808    
    73.00  0.55709    
    74.00  0.54648    
    75.00  0.53625    
    76.00  0.52640    
    77.00  0.51693    
    78.00  0.50782    
    79.00  0.49909    
    80.00  0.49072    
    81.00  0.48271    
    82.00  0.47506    
    83.00  0.46777    
    84.00  0.46082    
    85.00  0.45423    
    86.00  0.44797    
    87.00  0.44205    
    88.00  0.43647    
    89.00  0.43122    
    90.00  0.42629    
    91.00  0.42167    
    92.00  0.41737    
    93.00  0.41337    
    94.00  0.40968    
    95.00  0.40628    
    96.00  0.40317    
    97.00  0.40035    
    98.00  0.39780    
    99.00  0.39553    
   100.00  0.39351    
   101.00  0.39176    
   102.00  0.39026    
   103.00  0.38900    
   104.00  0.38798    
   105.00  0.38719    
   106.00  0.38663    
   107.00  0.38629    
   108.00  0.38615    
   109.00  0.38622    
   110.00  0.38649    
   111.00  0.38695    
   112.00  0.38759    
   113.00  0.38840    
   114.00  0.38939    
   115.00  0.39054    
   116.00  0.39184    
   117.00  0.39329    
   118.00  0.39488    
   119.00  0.39661    
   120.00  0.39846    
   121.00  0.40044    
   122.00  0.40253    
   123.00  0.40473    
   124.00  0.40703    
   125.00  0.40942    
   126.00  0.41190    
   127.00  0.41447    
   128.00  0.41711    
   129.00  0.41982    
   130.00  0.42260    
   131.00  0.42544    
   132.00  0.42833    
   133.00  0.43127    
   134.00  0.43425    
   135.00  0.43728    
   136.00  0.44035    
   137.00  0.44344    
   138.00  0.44657    
   139.00  0.44973    
   140.00  0.45291    
   141.00  0.45612    
   142.00  0.45935    
   143.00  0.46261    
   144.00  0.46588    
   145.00  0.46917    
   146.00  0.47248    
   147.00  0.47581    
   148.00  0.47914    
   149.00  0.48247    
   150.00  0.48579    
   151.00  0.48907    
   152.00  0.49231    
   153.00  0.49548    
   154.00  0.49854    
   155.00  0.50147    
   156.00  0.50423    
   157.00  0.50679    
   158.00  0.50911    
   159.00  0.51117    
   160.00  0.51296    
   161.00  0.51446    
   162.00  0.51570    
   163.00  0.51670    
   164.00  0.51751    
   165.00  0.51820    
   166.00  0.51885    
   167.00  0.51954    
   168.00  0.52036    
   169.00  0.52138    
   170.00  0.52264    
   171.00  0.52418    
   172.00  0.52597    
   173.00  0.52797    
   174.00  0.53010    
   175.00  0.53223    
   176.00  0.53425    
   177.00  0.53600    
   178.00  0.53735    
   179.00  0.53822    
   180.00  0.53851    
 |--------|------------|
0.420000     micron = Wavelength
0.268488     = Extinction efficiency (Q)
0.966583E-01 = Scattering efficiency (Qs)
0.171830     = Absorption efficiency (Qa)
 64.8187     = Lidar ratio
0.352421E-02 micron^2 = <b> = Average surface area per particle
0.946206E-03 microns^2 = Extinction cross section (C)
0.340644E-03 microns^2 = Scattering cross section (Cs)
0.605563E-03 microns^2 = Absorption cross section (Ca)
 |----------------------------------------------------|
 | COMMENTAIRES:                                      |
 |----------------------------------------------------|
 |   -Cross section / <b> should = efficiency         |
 |    is independant of the normalisation of dN/dx    |
 |   -The integral of the phase fct / 4 pi over all   |
 |    directions (solid angle) = 1.                   |
 |   -The volume coefficient (k) is equal to C * N    |
 |      = cross section * Number density              |
 |      typical units: [um^2]*[particles/cm^3] =      |
 |      [10^-3 km-1]                                  |
 |      N = M/(d*4/3*pi*r^3) where d is the density   |
 |      of particle, M is the mass per unit volume    |
 |      and 4/3*pi*r^3 is the average volume  of a    |
 |      particle.                                     |
 |      typical units:  M -> [ug/m^3], d -> [g/cm^3]  |
 |                      r -> [um]                     |
 |      Lidar ratio= 4 pi Qe / phase_fct(180)*Qs      |
 |----------------------------------------------------|
