 |--------|------------|
 | ANGLE  |  PHASE FCT |
 |--------|------------|
     0.00   62.791    
     1.00   61.515    
     2.00   57.911    
     3.00   52.568    
     4.00   46.235    
     5.00   39.611    
     6.00   33.232    
     7.00   27.432    
     8.00   22.380    
     9.00   18.119    
    10.00   14.614    
    11.00   11.785    
    12.00   9.5351    
    13.00   7.7655    
    14.00   6.3850    
    15.00   5.3145    
    16.00   4.4866    
    17.00   3.8471    
    18.00   3.3527    
    19.00   2.9691    
    20.00   2.6698    
    21.00   2.4344    
    22.00   2.2476    
    23.00   2.0974    
    24.00   1.9751    
    25.00   1.8739    
    26.00   1.7889    
    27.00   1.7162    
    28.00   1.6531    
    29.00   1.5974    
    30.00   1.5475    
    31.00   1.5023    
    32.00   1.4608    
    33.00   1.4222    
    34.00   1.3861    
    35.00   1.3521    
    36.00   1.3198    
    37.00   1.2890    
    38.00   1.2594    
    39.00   1.2310    
    40.00   1.2035    
    41.00   1.1769    
    42.00   1.1511    
    43.00   1.1260    
    44.00   1.1016    
    45.00   1.0778    
    46.00   1.0546    
    47.00   1.0319    
    48.00   1.0097    
    49.00  0.98805    
    50.00  0.96684    
    51.00  0.94609    
    52.00  0.92579    
    53.00  0.90593    
    54.00  0.88650    
    55.00  0.86748    
    56.00  0.84888    
    57.00  0.83069    
    58.00  0.81291    
    59.00  0.79554    
    60.00  0.77858    
    61.00  0.76202    
    62.00  0.74586    
    63.00  0.73010    
    64.00  0.71475    
    65.00  0.69980    
    66.00  0.68524    
    67.00  0.67109    
    68.00  0.65734    
    69.00  0.64399    
    70.00  0.63104    
    71.00  0.61850    
    72.00  0.60635    
    73.00  0.59459    
    74.00  0.58324    
    75.00  0.57228    
    76.00  0.56171    
    77.00  0.55154    
    78.00  0.54175    
    79.00  0.53235    
    80.00  0.52334    
    81.00  0.51470    
    82.00  0.50645    
    83.00  0.49857    
    84.00  0.49106    
    85.00  0.48392    
    86.00  0.47714    
    87.00  0.47072    
    88.00  0.46465    
    89.00  0.45893    
    90.00  0.45355    
    91.00  0.44851    
    92.00  0.44381    
    93.00  0.43943    
    94.00  0.43537    
    95.00  0.43163    
    96.00  0.42819    
    97.00  0.42506    
    98.00  0.42223    
    99.00  0.41968    
   100.00  0.41742    
   101.00  0.41543    
   102.00  0.41371    
   103.00  0.41225    
   104.00  0.41105    
   105.00  0.41009    
   106.00  0.40938    
   107.00  0.40890    
   108.00  0.40864    
   109.00  0.40860    
   110.00  0.40877    
   111.00  0.40915    
   112.00  0.40972    
   113.00  0.41048    
   114.00  0.41142    
   115.00  0.41254    
   116.00  0.41382    
   117.00  0.41525    
   118.00  0.41684    
   119.00  0.41858    
   120.00  0.42045    
   121.00  0.42245    
   122.00  0.42457    
   123.00  0.42681    
   124.00  0.42916    
   125.00  0.43161    
   126.00  0.43415    
   127.00  0.43678    
   128.00  0.43950    
   129.00  0.44229    
   130.00  0.44515    
   131.00  0.44807    
   132.00  0.45105    
   133.00  0.45408    
   134.00  0.45717    
   135.00  0.46029    
   136.00  0.46345    
   137.00  0.46665    
   138.00  0.46988    
   139.00  0.47314    
   140.00  0.47643    
   141.00  0.47973    
   142.00  0.48306    
   143.00  0.48641    
   144.00  0.48978    
   145.00  0.49316    
   146.00  0.49655    
   147.00  0.49995    
   148.00  0.50335    
   149.00  0.50673    
   150.00  0.51010    
   151.00  0.51342    
   152.00  0.51668    
   153.00  0.51986    
   154.00  0.52294    
   155.00  0.52587    
   156.00  0.52864    
   157.00  0.53121    
   158.00  0.53357    
   159.00  0.53568    
   160.00  0.53755    
   161.00  0.53917    
   162.00  0.54056    
   163.00  0.54176    
   164.00  0.54281    
   165.00  0.54378    
   166.00  0.54473    
   167.00  0.54573    
   168.00  0.54686    
   169.00  0.54816    
   170.00  0.54968    
   171.00  0.55142    
   172.00  0.55336    
   173.00  0.55545    
   174.00  0.55761    
   175.00  0.55974    
   176.00  0.56171    
   177.00  0.56341    
   178.00  0.56471    
   179.00  0.56554    
   180.00  0.56582    
 |--------|------------|
0.360000     micron = Wavelength
0.279141     = Extinction efficiency (Q)
0.102639     = Scattering efficiency (Qs)
0.176502     = Absorption efficiency (Qa)
 60.4009     = Lidar ratio
0.272777E-02 micron^2 = <b> = Average surface area per particle
0.761431E-03 microns^2 = Extinction cross section (C)
0.279974E-03 microns^2 = Scattering cross section (Cs)
0.481457E-03 microns^2 = Absorption cross section (Ca)
 |----------------------------------------------------|
 | COMMENTAIRES:                                      |
 |----------------------------------------------------|
 |   -Cross section / <b> should = efficiency         |
 |    is independant of the normalisation of dN/dx    |
 |   -The integral of the phase fct / 4 pi over all   |
 |    directions (solid angle) = 1.                   |
 |   -The volume coefficient (k) is equal to C * N    |
 |      = cross section * Number density              |
 |      typical units: [um^2]*[particles/cm^3] =      |
 |      [10^-3 km-1]                                  |
 |      N = M/(d*4/3*pi*r^3) where d is the density   |
 |      of particle, M is the mass per unit volume    |
 |      and 4/3*pi*r^3 is the average volume  of a    |
 |      particle.                                     |
 |      typical units:  M -> [ug/m^3], d -> [g/cm^3]  |
 |                      r -> [um]                     |
 |      Lidar ratio= 4 pi Qe / phase_fct(180)*Qs      |
 |----------------------------------------------------|
