 |--------|------------|
 | ANGLE  |  PHASE FCT |
 |--------|------------|
     0.00   70.267    
     1.00   68.376    
     2.00   63.130    
     3.00   55.615    
     4.00   47.118    
     5.00   38.719    
     6.00   31.106    
     7.00   24.603    
     8.00   19.281    
     9.00   15.061    
    10.00   11.792    
    11.00   9.3024    
    12.00   7.4293    
    13.00   6.0314    
    14.00   4.9925    
    15.00   4.2211    
    16.00   3.6471    
    17.00   3.2175    
    18.00   2.8932    
    19.00   2.6453    
    20.00   2.4530    
    21.00   2.3013    
    22.00   2.1790    
    23.00   2.0786    
    24.00   1.9942    
    25.00   1.9219    
    26.00   1.8587    
    27.00   1.8024    
    28.00   1.7516    
    29.00   1.7050    
    30.00   1.6619    
    31.00   1.6215    
    32.00   1.5834    
    33.00   1.5472    
    34.00   1.5125    
    35.00   1.4793    
    36.00   1.4472    
    37.00   1.4162    
    38.00   1.3860    
    39.00   1.3567    
    40.00   1.3281    
    41.00   1.3001    
    42.00   1.2728    
    43.00   1.2460    
    44.00   1.2197    
    45.00   1.1940    
    46.00   1.1687    
    47.00   1.1439    
    48.00   1.1195    
    49.00   1.0955    
    50.00   1.0720    
    51.00   1.0488    
    52.00   1.0261    
    53.00   1.0038    
    54.00  0.98192    
    55.00  0.96045    
    56.00  0.93939    
    57.00  0.91874    
    58.00  0.89850    
    59.00  0.87869    
    60.00  0.85929    
    61.00  0.84033    
    62.00  0.82179    
    63.00  0.80369    
    64.00  0.78602    
    65.00  0.76878    
    66.00  0.75198    
    67.00  0.73563    
    68.00  0.71972    
    69.00  0.70426    
    70.00  0.68923    
    71.00  0.67466    
    72.00  0.66053    
    73.00  0.64684    
    74.00  0.63360    
    75.00  0.62081    
    76.00  0.60845    
    77.00  0.59654    
    78.00  0.58506    
    79.00  0.57402    
    80.00  0.56341    
    81.00  0.55322    
    82.00  0.54347    
    83.00  0.53413    
    84.00  0.52521    
    85.00  0.51670    
    86.00  0.50860    
    87.00  0.50090    
    88.00  0.49359    
    89.00  0.48667    
    90.00  0.48014    
    91.00  0.47399    
    92.00  0.46820    
    93.00  0.46277    
    94.00  0.45770    
    95.00  0.45298    
    96.00  0.44861    
    97.00  0.44456    
    98.00  0.44084    
    99.00  0.43744    
   100.00  0.43435    
   101.00  0.43156    
   102.00  0.42907    
   103.00  0.42687    
   104.00  0.42494    
   105.00  0.42328    
   106.00  0.42189    
   107.00  0.42074    
   108.00  0.41984    
   109.00  0.41919    
   110.00  0.41875    
   111.00  0.41854    
   112.00  0.41854    
   113.00  0.41875    
   114.00  0.41915    
   115.00  0.41973    
   116.00  0.42050    
   117.00  0.42144    
   118.00  0.42254    
   119.00  0.42379    
   120.00  0.42520    
   121.00  0.42674    
   122.00  0.42841    
   123.00  0.43021    
   124.00  0.43213    
   125.00  0.43415    
   126.00  0.43628    
   127.00  0.43850    
   128.00  0.44081    
   129.00  0.44320    
   130.00  0.44567    
   131.00  0.44820    
   132.00  0.45080    
   133.00  0.45345    
   134.00  0.45615    
   135.00  0.45889    
   136.00  0.46167    
   137.00  0.46448    
   138.00  0.46731    
   139.00  0.47017    
   140.00  0.47305    
   141.00  0.47595    
   142.00  0.47885    
   143.00  0.48177    
   144.00  0.48468    
   145.00  0.48761    
   146.00  0.49054    
   147.00  0.49346    
   148.00  0.49639    
   149.00  0.49931    
   150.00  0.50221    
   151.00  0.50510    
   152.00  0.50797    
   153.00  0.51079    
   154.00  0.51356    
   155.00  0.51626    
   156.00  0.51887    
   157.00  0.52135    
   158.00  0.52370    
   159.00  0.52588    
   160.00  0.52787    
   161.00  0.52966    
   162.00  0.53125    
   163.00  0.53264    
   164.00  0.53384    
   165.00  0.53490    
   166.00  0.53586    
   167.00  0.53677    
   168.00  0.53768    
   169.00  0.53864    
   170.00  0.53970    
   171.00  0.54089    
   172.00  0.54220    
   173.00  0.54361    
   174.00  0.54509    
   175.00  0.54656    
   176.00  0.54794    
   177.00  0.54914    
   178.00  0.55007    
   179.00  0.55066    
   180.00  0.55086    
 |--------|------------|
0.436000     micron = Wavelength
0.326922     = Extinction efficiency (Q)
0.127840     = Scattering efficiency (Qs)
0.199082     = Absorption efficiency (Qa)
 58.3371     = Lidar ratio
0.513788E-02 micron^2 = <b> = Average surface area per particle
0.167969E-02 microns^2 = Extinction cross section (C)
0.656826E-03 microns^2 = Scattering cross section (Cs)
0.102286E-02 microns^2 = Absorption cross section (Ca)
 |----------------------------------------------------|
 | COMMENTAIRES:                                      |
 |----------------------------------------------------|
 |   -Cross section / <b> should = efficiency         |
 |    is independant of the normalisation of dN/dx    |
 |   -The integral of the phase fct / 4 pi over all   |
 |    directions (solid angle) = 1.                   |
 |   -The volume coefficient (k) is equal to C * N    |
 |      = cross section * Number density              |
 |      typical units: [um^2]*[particles/cm^3] =      |
 |      [10^-3 km-1]                                  |
 |      N = M/(d*4/3*pi*r^3) where d is the density   |
 |      of particle, M is the mass per unit volume    |
 |      and 4/3*pi*r^3 is the average volume  of a    |
 |      particle.                                     |
 |      typical units:  M -> [ug/m^3], d -> [g/cm^3]  |
 |                      r -> [um]                     |
 |      Lidar ratio= 4 pi Qe / phase_fct(180)*Qs      |
 |----------------------------------------------------|
