 |--------|------------|
 | ANGLE  |  PHASE FCT |
 |--------|------------|
     0.00   161.86    
     1.00   151.41    
     2.00   124.63    
     3.00   91.865    
     4.00   62.532    
     5.00   40.869    
     6.00   26.548    
     7.00   17.516    
     8.00   11.933    
     9.00   8.5449    
    10.00   6.4944    
    11.00   5.2210    
    12.00   4.4065    
    13.00   3.8713    
    14.00   3.5015    
    15.00   3.2306    
    16.00   3.0251    
    17.00   2.8637    
    18.00   2.7307    
    19.00   2.6184    
    20.00   2.5223    
    21.00   2.4381    
    22.00   2.3627    
    23.00   2.2946    
    24.00   2.2326    
    25.00   2.1751    
    26.00   2.1213    
    27.00   2.0708    
    28.00   2.0228    
    29.00   1.9769    
    30.00   1.9327    
    31.00   1.8901    
    32.00   1.8487    
    33.00   1.8084    
    34.00   1.7690    
    35.00   1.7304    
    36.00   1.6925    
    37.00   1.6553    
    38.00   1.6187    
    39.00   1.5826    
    40.00   1.5471    
    41.00   1.5120    
    42.00   1.4775    
    43.00   1.4434    
    44.00   1.4098    
    45.00   1.3767    
    46.00   1.3441    
    47.00   1.3119    
    48.00   1.2802    
    49.00   1.2490    
    50.00   1.2184    
    51.00   1.1882    
    52.00   1.1585    
    53.00   1.1294    
    54.00   1.1008    
    55.00   1.0728    
    56.00   1.0453    
    57.00   1.0184    
    58.00  0.99199    
    59.00  0.96621    
    60.00  0.94100    
    61.00  0.91638    
    62.00  0.89235    
    63.00  0.86890    
    64.00  0.84605    
    65.00  0.82380    
    66.00  0.80213    
    67.00  0.78107    
    68.00  0.76060    
    69.00  0.74073    
    70.00  0.72144    
    71.00  0.70274    
    72.00  0.68463    
    73.00  0.66709    
    74.00  0.65013    
    75.00  0.63375    
    76.00  0.61792    
    77.00  0.60266    
    78.00  0.58794    
    79.00  0.57377    
    80.00  0.56013    
    81.00  0.54702    
    82.00  0.53443    
    83.00  0.52235    
    84.00  0.51077    
    85.00  0.49969    
    86.00  0.48908    
    87.00  0.47895    
    88.00  0.46928    
    89.00  0.46006    
    90.00  0.45129    
    91.00  0.44295    
    92.00  0.43502    
    93.00  0.42751    
    94.00  0.42040    
    95.00  0.41368    
    96.00  0.40734    
    97.00  0.40137    
    98.00  0.39576    
    99.00  0.39049    
   100.00  0.38556    
   101.00  0.38096    
   102.00  0.37668    
   103.00  0.37270    
   104.00  0.36902    
   105.00  0.36562    
   106.00  0.36251    
   107.00  0.35966    
   108.00  0.35706    
   109.00  0.35472    
   110.00  0.35261    
   111.00  0.35074    
   112.00  0.34908    
   113.00  0.34763    
   114.00  0.34639    
   115.00  0.34535    
   116.00  0.34449    
   117.00  0.34380    
   118.00  0.34329    
   119.00  0.34293    
   120.00  0.34273    
   121.00  0.34268    
   122.00  0.34277    
   123.00  0.34298    
   124.00  0.34333    
   125.00  0.34378    
   126.00  0.34435    
   127.00  0.34502    
   128.00  0.34579    
   129.00  0.34665    
   130.00  0.34760    
   131.00  0.34862    
   132.00  0.34972    
   133.00  0.35088    
   134.00  0.35210    
   135.00  0.35338    
   136.00  0.35471    
   137.00  0.35609    
   138.00  0.35750    
   139.00  0.35895    
   140.00  0.36043    
   141.00  0.36194    
   142.00  0.36346    
   143.00  0.36500    
   144.00  0.36655    
   145.00  0.36811    
   146.00  0.36968    
   147.00  0.37124    
   148.00  0.37281    
   149.00  0.37436    
   150.00  0.37591    
   151.00  0.37744    
   152.00  0.37896    
   153.00  0.38047    
   154.00  0.38195    
   155.00  0.38342    
   156.00  0.38487    
   157.00  0.38629    
   158.00  0.38768    
   159.00  0.38903    
   160.00  0.39034    
   161.00  0.39160    
   162.00  0.39279    
   163.00  0.39391    
   164.00  0.39494    
   165.00  0.39589    
   166.00  0.39675    
   167.00  0.39754    
   168.00  0.39825    
   169.00  0.39890    
   170.00  0.39951    
   171.00  0.40009    
   172.00  0.40066    
   173.00  0.40122    
   174.00  0.40177    
   175.00  0.40230    
   176.00  0.40279    
   177.00  0.40321    
   178.00  0.40354    
   179.00  0.40375    
   180.00  0.40382    
 |--------|------------|
0.650000     micron = Wavelength
0.507622     = Extinction efficiency (Q)
0.235663     = Scattering efficiency (Qs)
0.271959     = Absorption efficiency (Qa)
 67.0295     = Lidar ratio
0.199976E-01 micron^2 = <b> = Average surface area per particle
0.101512E-01 microns^2 = Extinction cross section (C)
0.471271E-02 microns^2 = Scattering cross section (Cs)
0.543853E-02 microns^2 = Absorption cross section (Ca)
 |----------------------------------------------------|
 | COMMENTAIRES:                                      |
 |----------------------------------------------------|
 |   -Cross section / <b> should = efficiency         |
 |    is independant of the normalisation of dN/dx    |
 |   -The integral of the phase fct / 4 pi over all   |
 |    directions (solid angle) = 1.                   |
 |   -The volume coefficient (k) is equal to C * N    |
 |      = cross section * Number density              |
 |      typical units: [um^2]*[particles/cm^3] =      |
 |      [10^-3 km-1]                                  |
 |      N = M/(d*4/3*pi*r^3) where d is the density   |
 |      of particle, M is the mass per unit volume    |
 |      and 4/3*pi*r^3 is the average volume  of a    |
 |      particle.                                     |
 |      typical units:  M -> [ug/m^3], d -> [g/cm^3]  |
 |                      r -> [um]                     |
 |      Lidar ratio= 4 pi Qe / phase_fct(180)*Qs      |
 |----------------------------------------------------|
