 |--------|------------|
 | ANGLE  |  PHASE FCT |
 |--------|------------|
     0.00   31.668    
     1.00   31.508    
     2.00   31.037    
     3.00   30.275    
     4.00   29.257    
     5.00   28.023    
     6.00   26.620    
     7.00   25.096    
     8.00   23.494    
     9.00   21.857    
    10.00   20.221    
    11.00   18.614    
    12.00   17.061    
    13.00   15.580    
    14.00   14.182    
    15.00   12.876    
    16.00   11.665    
    17.00   10.551    
    18.00   9.5326    
    19.00   8.6061    
    20.00   7.7669    
    21.00   7.0099    
    22.00   6.3291    
    23.00   5.7184    
    24.00   5.1719    
    25.00   4.6837    
    26.00   4.2479    
    27.00   3.8593    
    28.00   3.5129    
    29.00   3.2042    
    30.00   2.9290    
    31.00   2.6835    
    32.00   2.4643    
    33.00   2.2683    
    34.00   2.0930    
    35.00   1.9357    
    36.00   1.7945    
    37.00   1.6674    
    38.00   1.5527    
    39.00   1.4491    
    40.00   1.3552    
    41.00   1.2699    
    42.00   1.1923    
    43.00   1.1214    
    44.00   1.0565    
    45.00  0.99702    
    46.00  0.94231    
    47.00  0.89187    
    48.00  0.84528    
    49.00  0.80215    
    50.00  0.76212    
    51.00  0.72491    
    52.00  0.69025    
    53.00  0.65791    
    54.00  0.62768    
    55.00  0.59937    
    56.00  0.57284    
    57.00  0.54793    
    58.00  0.52451    
    59.00  0.50247    
    60.00  0.48170    
    61.00  0.46212    
    62.00  0.44364    
    63.00  0.42618    
    64.00  0.40967    
    65.00  0.39405    
    66.00  0.37927    
    67.00  0.36526    
    68.00  0.35199    
    69.00  0.33941    
    70.00  0.32748    
    71.00  0.31616    
    72.00  0.30542    
    73.00  0.29522    
    74.00  0.28554    
    75.00  0.27634    
    76.00  0.26761    
    77.00  0.25931    
    78.00  0.25143    
    79.00  0.24395    
    80.00  0.23684    
    81.00  0.23008    
    82.00  0.22367    
    83.00  0.21757    
    84.00  0.21179    
    85.00  0.20630    
    86.00  0.20109    
    87.00  0.19615    
    88.00  0.19147    
    89.00  0.18703    
    90.00  0.18282    
    91.00  0.17883    
    92.00  0.17506    
    93.00  0.17150    
    94.00  0.16813    
    95.00  0.16495    
    96.00  0.16196    
    97.00  0.15913    
    98.00  0.15648    
    99.00  0.15398    
   100.00  0.15164    
   101.00  0.14945    
   102.00  0.14740    
   103.00  0.14549    
   104.00  0.14371    
   105.00  0.14206    
   106.00  0.14054    
   107.00  0.13913    
   108.00  0.13784    
   109.00  0.13667    
   110.00  0.13560    
   111.00  0.13465    
   112.00  0.13379    
   113.00  0.13304    
   114.00  0.13238    
   115.00  0.13183    
   116.00  0.13136    
   117.00  0.13099    
   118.00  0.13072    
   119.00  0.13053    
   120.00  0.13043    
   121.00  0.13041    
   122.00  0.13049    
   123.00  0.13065    
   124.00  0.13090    
   125.00  0.13123    
   126.00  0.13164    
   127.00  0.13214    
   128.00  0.13273    
   129.00  0.13339    
   130.00  0.13414    
   131.00  0.13497    
   132.00  0.13587    
   133.00  0.13685    
   134.00  0.13790    
   135.00  0.13902    
   136.00  0.14020    
   137.00  0.14144    
   138.00  0.14272    
   139.00  0.14404    
   140.00  0.14539    
   141.00  0.14675    
   142.00  0.14810    
   143.00  0.14942    
   144.00  0.15070    
   145.00  0.15191    
   146.00  0.15302    
   147.00  0.15400    
   148.00  0.15483    
   149.00  0.15548    
   150.00  0.15592    
   151.00  0.15613    
   152.00  0.15607    
   153.00  0.15574    
   154.00  0.15513    
   155.00  0.15423    
   156.00  0.15305    
   157.00  0.15162    
   158.00  0.14996    
   159.00  0.14814    
   160.00  0.14620    
   161.00  0.14422    
   162.00  0.14229    
   163.00  0.14050    
   164.00  0.13892    
   165.00  0.13765    
   166.00  0.13677    
   167.00  0.13633    
   168.00  0.13637    
   169.00  0.13690    
   170.00  0.13791    
   171.00  0.13935    
   172.00  0.14113    
   173.00  0.14317    
   174.00  0.14533    
   175.00  0.14748    
   176.00  0.14948    
   177.00  0.15119    
   178.00  0.15251    
   179.00  0.15334    
   180.00  0.15362    
 |--------|------------|
0.730000     micron = Wavelength
0.156962     = Extinction efficiency (Q)
0.658372E-01 = Scattering efficiency (Qs)
0.911250E-01 = Absorption efficiency (Qa)
 195.022     = Lidar ratio
0.272779E-02 micron^2 = <b> = Average surface area per particle
0.428160E-03 microns^2 = Extinction cross section (C)
0.179590E-03 microns^2 = Scattering cross section (Cs)
0.248570E-03 microns^2 = Absorption cross section (Ca)
 |----------------------------------------------------|
 | COMMENTAIRES:                                      |
 |----------------------------------------------------|
 |   -Cross section / <b> should = efficiency         |
 |    is independant of the normalisation of dN/dx    |
 |   -The integral of the phase fct / 4 pi over all   |
 |    directions (solid angle) = 1.                   |
 |   -The volume coefficient (k) is equal to C * N    |
 |      = cross section * Number density              |
 |      typical units: [um^2]*[particles/cm^3] =      |
 |      [10^-3 km-1]                                  |
 |      N = M/(d*4/3*pi*r^3) where d is the density   |
 |      of particle, M is the mass per unit volume    |
 |      and 4/3*pi*r^3 is the average volume  of a    |
 |      particle.                                     |
 |      typical units:  M -> [ug/m^3], d -> [g/cm^3]  |
 |                      r -> [um]                     |
 |      Lidar ratio= 4 pi Qe / phase_fct(180)*Qs      |
 |----------------------------------------------------|
