 |--------|------------|
 | ANGLE  |  PHASE FCT |
 |--------|------------|
     0.00   89.476    
     1.00   87.303    
     2.00   81.232    
     3.00   72.405    
     4.00   62.220    
     5.00   51.905    
     6.00   42.310    
     7.00   33.893    
     8.00   26.822    
     9.00   21.068    
    10.00   16.499    
    11.00   12.936    
    12.00   10.195    
    13.00   8.1063    
    14.00   6.5260    
    15.00   5.3344    
    16.00   4.4369    
    17.00   3.7599    
    18.00   3.2472    
    19.00   2.8563    
    20.00   2.5555    
    21.00   2.3213    
    22.00   2.1366    
    23.00   1.9884    
    24.00   1.8676    
    25.00   1.7674    
    26.00   1.6827    
    27.00   1.6099    
    28.00   1.5462    
    29.00   1.4898    
    30.00   1.4390    
    31.00   1.3929    
    32.00   1.3504    
    33.00   1.3111    
    34.00   1.2743    
    35.00   1.2397    
    36.00   1.2070    
    37.00   1.1759    
    38.00   1.1462    
    39.00   1.1178    
    40.00   1.0906    
    41.00   1.0643    
    42.00   1.0389    
    43.00   1.0144    
    44.00  0.99066    
    45.00  0.96761    
    46.00  0.94524    
    47.00  0.92349    
    48.00  0.90232    
    49.00  0.88171    
    50.00  0.86163    
    51.00  0.84206    
    52.00  0.82299    
    53.00  0.80439    
    54.00  0.78626    
    55.00  0.76858    
    56.00  0.75133    
    57.00  0.73451    
    58.00  0.71813    
    59.00  0.70215    
    60.00  0.68660    
    61.00  0.67145    
    62.00  0.65670    
    63.00  0.64236    
    64.00  0.62841    
    65.00  0.61486    
    66.00  0.60169    
    67.00  0.58892    
    68.00  0.57653    
    69.00  0.56453    
    70.00  0.55291    
    71.00  0.54166    
    72.00  0.53079    
    73.00  0.52029    
    74.00  0.51017    
    75.00  0.50041    
    76.00  0.49101    
    77.00  0.48198    
    78.00  0.47330    
    79.00  0.46498    
    80.00  0.45701    
    81.00  0.44939    
    82.00  0.44211    
    83.00  0.43516    
    84.00  0.42856    
    85.00  0.42228    
    86.00  0.41633    
    87.00  0.41070    
    88.00  0.40538    
    89.00  0.40038    
    90.00  0.39568    
    91.00  0.39128    
    92.00  0.38718    
    93.00  0.38337    
    94.00  0.37984    
    95.00  0.37659    
    96.00  0.37361    
    97.00  0.37090    
    98.00  0.36844    
    99.00  0.36624    
   100.00  0.36429    
   101.00  0.36258    
   102.00  0.36111    
   103.00  0.35986    
   104.00  0.35884    
   105.00  0.35803    
   106.00  0.35743    
   107.00  0.35703    
   108.00  0.35683    
   109.00  0.35682    
   110.00  0.35699    
   111.00  0.35734    
   112.00  0.35786    
   113.00  0.35854    
   114.00  0.35938    
   115.00  0.36036    
   116.00  0.36149    
   117.00  0.36276    
   118.00  0.36416    
   119.00  0.36568    
   120.00  0.36732    
   121.00  0.36908    
   122.00  0.37093    
   123.00  0.37289    
   124.00  0.37494    
   125.00  0.37708    
   126.00  0.37930    
   127.00  0.38159    
   128.00  0.38396    
   129.00  0.38639    
   130.00  0.38887    
   131.00  0.39141    
   132.00  0.39400    
   133.00  0.39663    
   134.00  0.39931    
   135.00  0.40201    
   136.00  0.40475    
   137.00  0.40752    
   138.00  0.41030    
   139.00  0.41311    
   140.00  0.41594    
   141.00  0.41879    
   142.00  0.42165    
   143.00  0.42453    
   144.00  0.42742    
   145.00  0.43033    
   146.00  0.43326    
   147.00  0.43620    
   148.00  0.43917    
   149.00  0.44215    
   150.00  0.44514    
   151.00  0.44814    
   152.00  0.45114    
   153.00  0.45412    
   154.00  0.45705    
   155.00  0.45992    
   156.00  0.46268    
   157.00  0.46529    
   158.00  0.46771    
   159.00  0.46991    
   160.00  0.47182    
   161.00  0.47343    
   162.00  0.47471    
   163.00  0.47567    
   164.00  0.47633    
   165.00  0.47675    
   166.00  0.47699    
   167.00  0.47716    
   168.00  0.47735    
   169.00  0.47768    
   170.00  0.47823    
   171.00  0.47908    
   172.00  0.48025    
   173.00  0.48172    
   174.00  0.48342    
   175.00  0.48525    
   176.00  0.48706    
   177.00  0.48870    
   178.00  0.49000    
   179.00  0.49084    
   180.00  0.49113    
 |--------|------------|
0.690000     micron = Wavelength
0.274192     = Extinction efficiency (Q)
0.100535     = Scattering efficiency (Qs)
0.173656     = Absorption efficiency (Qa)
 69.7835     = Lidar ratio
0.100547E-01 micron^2 = <b> = Average surface area per particle
0.275692E-02 microns^2 = Extinction cross section (C)
0.101086E-02 microns^2 = Scattering cross section (Cs)
0.174607E-02 microns^2 = Absorption cross section (Ca)
 |----------------------------------------------------|
 | COMMENTAIRES:                                      |
 |----------------------------------------------------|
 |   -Cross section / <b> should = efficiency         |
 |    is independant of the normalisation of dN/dx    |
 |   -The integral of the phase fct / 4 pi over all   |
 |    directions (solid angle) = 1.                   |
 |   -The volume coefficient (k) is equal to C * N    |
 |      = cross section * Number density              |
 |      typical units: [um^2]*[particles/cm^3] =      |
 |      [10^-3 km-1]                                  |
 |      N = M/(d*4/3*pi*r^3) where d is the density   |
 |      of particle, M is the mass per unit volume    |
 |      and 4/3*pi*r^3 is the average volume  of a    |
 |      particle.                                     |
 |      typical units:  M -> [ug/m^3], d -> [g/cm^3]  |
 |                      r -> [um]                     |
 |      Lidar ratio= 4 pi Qe / phase_fct(180)*Qs      |
 |----------------------------------------------------|
