 |--------|------------|
 | ANGLE  |  PHASE FCT |
 |--------|------------|
     0.00   77.154    
     1.00   74.996    
     2.00   69.025    
     3.00   60.512    
     4.00   50.951    
     5.00   41.575    
     6.00   33.151    
     7.00   26.017    
     8.00   20.230    
     9.00   15.680    
    10.00   12.185    
    11.00   9.5438    
    12.00   7.5721    
    13.00   6.1111    
    14.00   5.0326    
    15.00   4.2365    
    16.00   3.6473    
    17.00   3.2084    
    18.00   2.8782    
    19.00   2.6266    
    20.00   2.4318    
    21.00   2.2781    
    22.00   2.1545    
    23.00   2.0528    
    24.00   1.9674    
    25.00   1.8941    
    26.00   1.8301    
    27.00   1.7731    
    28.00   1.7217    
    29.00   1.6746    
    30.00   1.6311    
    31.00   1.5904    
    32.00   1.5520    
    33.00   1.5156    
    34.00   1.4809    
    35.00   1.4476    
    36.00   1.4155    
    37.00   1.3846    
    38.00   1.3545    
    39.00   1.3254    
    40.00   1.2969    
    41.00   1.2692    
    42.00   1.2421    
    43.00   1.2156    
    44.00   1.1897    
    45.00   1.1642    
    46.00   1.1393    
    47.00   1.1148    
    48.00   1.0908    
    49.00   1.0672    
    50.00   1.0441    
    51.00   1.0214    
    52.00  0.99909    
    53.00  0.97722    
    54.00  0.95575    
    55.00  0.93471    
    56.00  0.91407    
    57.00  0.89386    
    58.00  0.87407    
    59.00  0.85469    
    60.00  0.83574    
    61.00  0.81721    
    62.00  0.79911    
    63.00  0.78143    
    64.00  0.76419    
    65.00  0.74738    
    66.00  0.73101    
    67.00  0.71507    
    68.00  0.69957    
    69.00  0.68451    
    70.00  0.66988    
    71.00  0.65570    
    72.00  0.64195    
    73.00  0.62865    
    74.00  0.61578    
    75.00  0.60334    
    76.00  0.59134    
    77.00  0.57977    
    78.00  0.56862    
    79.00  0.55791    
    80.00  0.54761    
    81.00  0.53774    
    82.00  0.52828    
    83.00  0.51923    
    84.00  0.51059    
    85.00  0.50235    
    86.00  0.49450    
    87.00  0.48706    
    88.00  0.47999    
    89.00  0.47330    
    90.00  0.46698    
    91.00  0.46104    
    92.00  0.45545    
    93.00  0.45021    
    94.00  0.44532    
    95.00  0.44078    
    96.00  0.43656    
    97.00  0.43267    
    98.00  0.42909    
    99.00  0.42583    
   100.00  0.42286    
   101.00  0.42019    
   102.00  0.41781    
   103.00  0.41570    
   104.00  0.41386    
   105.00  0.41229    
   106.00  0.41097    
   107.00  0.40990    
   108.00  0.40906    
   109.00  0.40845    
   110.00  0.40806    
   111.00  0.40789    
   112.00  0.40793    
   113.00  0.40816    
   114.00  0.40857    
   115.00  0.40917    
   116.00  0.40995    
   117.00  0.41089    
   118.00  0.41199    
   119.00  0.41323    
   120.00  0.41462    
   121.00  0.41615    
   122.00  0.41780    
   123.00  0.41957    
   124.00  0.42146    
   125.00  0.42345    
   126.00  0.42554    
   127.00  0.42772    
   128.00  0.42998    
   129.00  0.43233    
   130.00  0.43474    
   131.00  0.43722    
   132.00  0.43976    
   133.00  0.44235    
   134.00  0.44499    
   135.00  0.44767    
   136.00  0.45038    
   137.00  0.45313    
   138.00  0.45590    
   139.00  0.45869    
   140.00  0.46150    
   141.00  0.46432    
   142.00  0.46715    
   143.00  0.46999    
   144.00  0.47283    
   145.00  0.47568    
   146.00  0.47853    
   147.00  0.48138    
   148.00  0.48423    
   149.00  0.48708    
   150.00  0.48992    
   151.00  0.49275    
   152.00  0.49555    
   153.00  0.49834    
   154.00  0.50108    
   155.00  0.50376    
   156.00  0.50636    
   157.00  0.50885    
   158.00  0.51121    
   159.00  0.51340    
   160.00  0.51541    
   161.00  0.51720    
   162.00  0.51877    
   163.00  0.52012    
   164.00  0.52127    
   165.00  0.52223    
   166.00  0.52306    
   167.00  0.52382    
   168.00  0.52455    
   169.00  0.52534    
   170.00  0.52622    
   171.00  0.52724    
   172.00  0.52841    
   173.00  0.52973    
   174.00  0.53113    
   175.00  0.53256    
   176.00  0.53393    
   177.00  0.53513    
   178.00  0.53607    
   179.00  0.53667    
   180.00  0.53688    
 |--------|------------|
0.520000     micron = Wavelength
0.321944     = Extinction efficiency (Q)
0.125174     = Scattering efficiency (Qs)
0.196770     = Absorption efficiency (Qa)
 60.2009     = Lidar ratio
0.730526E-02 micron^2 = <b> = Average surface area per particle
0.235188E-02 microns^2 = Extinction cross section (C)
0.914428E-03 microns^2 = Scattering cross section (Cs)
0.143746E-02 microns^2 = Absorption cross section (Ca)
 |----------------------------------------------------|
 | COMMENTAIRES:                                      |
 |----------------------------------------------------|
 |   -Cross section / <b> should = efficiency         |
 |    is independant of the normalisation of dN/dx    |
 |   -The integral of the phase fct / 4 pi over all   |
 |    directions (solid angle) = 1.                   |
 |   -The volume coefficient (k) is equal to C * N    |
 |      = cross section * Number density              |
 |      typical units: [um^2]*[particles/cm^3] =      |
 |      [10^-3 km-1]                                  |
 |      N = M/(d*4/3*pi*r^3) where d is the density   |
 |      of particle, M is the mass per unit volume    |
 |      and 4/3*pi*r^3 is the average volume  of a    |
 |      particle.                                     |
 |      typical units:  M -> [ug/m^3], d -> [g/cm^3]  |
 |                      r -> [um]                     |
 |      Lidar ratio= 4 pi Qe / phase_fct(180)*Qs      |
 |----------------------------------------------------|
