 |--------|------------|
 | ANGLE  |  PHASE FCT |
 |--------|------------|
     0.00   65.394    
     1.00   64.466    
     2.00   61.797    
     3.00   57.702    
     4.00   52.615    
     5.00   46.987    
     6.00   41.217    
     7.00   35.620    
     8.00   30.407    
     9.00   25.707    
    10.00   21.573    
    11.00   18.009    
    12.00   14.988    
    13.00   12.459    
    14.00   10.365    
    15.00   8.6445    
    16.00   7.2410    
    17.00   6.1015    
    18.00   5.1794    
    19.00   4.4347    
    20.00   3.8338    
    21.00   3.3485    
    22.00   2.9559    
    23.00   2.6371    
    24.00   2.3771    
    25.00   2.1636    
    26.00   1.9872    
    27.00   1.8402    
    28.00   1.7164    
    29.00   1.6112    
    30.00   1.5207    
    31.00   1.4420    
    32.00   1.3728    
    33.00   1.3114    
    34.00   1.2562    
    35.00   1.2062    
    36.00   1.1604    
    37.00   1.1182    
    38.00   1.0791    
    39.00   1.0425    
    40.00   1.0082    
    41.00  0.97579    
    42.00  0.94516    
    43.00  0.91607    
    44.00  0.88836    
    45.00  0.86192    
    46.00  0.83665    
    47.00  0.81245    
    48.00  0.78924    
    49.00  0.76695    
    50.00  0.74553    
    51.00  0.72494    
    52.00  0.70511    
    53.00  0.68602    
    54.00  0.66764    
    55.00  0.64992    
    56.00  0.63284    
    57.00  0.61637    
    58.00  0.60049    
    59.00  0.58518    
    60.00  0.57041    
    61.00  0.55617    
    62.00  0.54244    
    63.00  0.52921    
    64.00  0.51645    
    65.00  0.50415    
    66.00  0.49231    
    67.00  0.48090    
    68.00  0.46992    
    69.00  0.45936    
    70.00  0.44919    
    71.00  0.43943    
    72.00  0.43004    
    73.00  0.42104    
    74.00  0.41240    
    75.00  0.40412    
    76.00  0.39619    
    77.00  0.38860    
    78.00  0.38135    
    79.00  0.37442    
    80.00  0.36782    
    81.00  0.36153    
    82.00  0.35555    
    83.00  0.34987    
    84.00  0.34449    
    85.00  0.33939    
    86.00  0.33458    
    87.00  0.33004    
    88.00  0.32578    
    89.00  0.32178    
    90.00  0.31804    
    91.00  0.31455    
    92.00  0.31131    
    93.00  0.30831    
    94.00  0.30555    
    95.00  0.30302    
    96.00  0.30071    
    97.00  0.29863    
    98.00  0.29675    
    99.00  0.29509    
   100.00  0.29363    
   101.00  0.29237    
   102.00  0.29130    
   103.00  0.29042    
   104.00  0.28972    
   105.00  0.28920    
   106.00  0.28885    
   107.00  0.28867    
   108.00  0.28864    
   109.00  0.28877    
   110.00  0.28905    
   111.00  0.28948    
   112.00  0.29005    
   113.00  0.29075    
   114.00  0.29158    
   115.00  0.29253    
   116.00  0.29361    
   117.00  0.29480    
   118.00  0.29609    
   119.00  0.29750    
   120.00  0.29900    
   121.00  0.30060    
   122.00  0.30230    
   123.00  0.30407    
   124.00  0.30594    
   125.00  0.30788    
   126.00  0.30989    
   127.00  0.31198    
   128.00  0.31414    
   129.00  0.31636    
   130.00  0.31864    
   131.00  0.32098    
   132.00  0.32339    
   133.00  0.32584    
   134.00  0.32836    
   135.00  0.33093    
   136.00  0.33355    
   137.00  0.33623    
   138.00  0.33896    
   139.00  0.34175    
   140.00  0.34460    
   141.00  0.34751    
   142.00  0.35048    
   143.00  0.35350    
   144.00  0.35658    
   145.00  0.35972    
   146.00  0.36290    
   147.00  0.36612    
   148.00  0.36937    
   149.00  0.37261    
   150.00  0.37584    
   151.00  0.37901    
   152.00  0.38209    
   153.00  0.38503    
   154.00  0.38779    
   155.00  0.39031    
   156.00  0.39254    
   157.00  0.39443    
   158.00  0.39594    
   159.00  0.39704    
   160.00  0.39773    
   161.00  0.39801    
   162.00  0.39793    
   163.00  0.39755    
   164.00  0.39698    
   165.00  0.39633    
   166.00  0.39573    
   167.00  0.39533    
   168.00  0.39525    
   169.00  0.39561    
   170.00  0.39649    
   171.00  0.39791    
   172.00  0.39985    
   173.00  0.40222    
   174.00  0.40488    
   175.00  0.40765    
   176.00  0.41032    
   177.00  0.41268    
   178.00  0.41454    
   179.00  0.41572    
   180.00  0.41612    
 |--------|------------|
0.616000     micron = Wavelength
0.213379     = Extinction efficiency (Q)
0.739707E-01 = Scattering efficiency (Qs)
0.139409     = Absorption efficiency (Qa)
 87.1130     = Lidar ratio
0.513790E-02 micron^2 = <b> = Average surface area per particle
0.109632E-02 microns^2 = Extinction cross section (C)
0.380055E-03 microns^2 = Scattering cross section (Cs)
0.716268E-03 microns^2 = Absorption cross section (Ca)
 |----------------------------------------------------|
 | COMMENTAIRES:                                      |
 |----------------------------------------------------|
 |   -Cross section / <b> should = efficiency         |
 |    is independant of the normalisation of dN/dx    |
 |   -The integral of the phase fct / 4 pi over all   |
 |    directions (solid angle) = 1.                   |
 |   -The volume coefficient (k) is equal to C * N    |
 |      = cross section * Number density              |
 |      typical units: [um^2]*[particles/cm^3] =      |
 |      [10^-3 km-1]                                  |
 |      N = M/(d*4/3*pi*r^3) where d is the density   |
 |      of particle, M is the mass per unit volume    |
 |      and 4/3*pi*r^3 is the average volume  of a    |
 |      particle.                                     |
 |      typical units:  M -> [ug/m^3], d -> [g/cm^3]  |
 |                      r -> [um]                     |
 |      Lidar ratio= 4 pi Qe / phase_fct(180)*Qs      |
 |----------------------------------------------------|
