 |--------|------------|
 | ANGLE  |  PHASE FCT |
 |--------|------------|
     0.00   77.514    
     1.00   75.839    
     2.00   71.123    
     3.00   64.176    
     4.00   56.007    
     5.00   47.550    
     6.00   39.493    
     7.00   32.249    
     8.00   26.011    
     9.00   20.809    
    10.00   16.578    
    11.00   13.201    
    12.00   10.543    
    13.00   8.4748    
    14.00   6.8777    
    15.00   5.6511    
    16.00   4.7112    
    17.00   3.9916    
    18.00   3.4398    
    19.00   3.0149    
    20.00   2.6855    
    21.00   2.4281    
    22.00   2.2249    
    23.00   2.0622    
    24.00   1.9303    
    25.00   1.8214    
    26.00   1.7302    
    27.00   1.6525    
    28.00   1.5851    
    29.00   1.5258    
    30.00   1.4729    
    31.00   1.4250    
    32.00   1.3813    
    33.00   1.3408    
    34.00   1.3031    
    35.00   1.2677    
    36.00   1.2342    
    37.00   1.2025    
    38.00   1.1722    
    39.00   1.1432    
    40.00   1.1153    
    41.00   1.0885    
    42.00   1.0626    
    43.00   1.0375    
    44.00   1.0133    
    45.00  0.98970    
    46.00  0.96683    
    47.00  0.94459    
    48.00  0.92296    
    49.00  0.90189    
    50.00  0.88137    
    51.00  0.86138    
    52.00  0.84189    
    53.00  0.82289    
    54.00  0.80436    
    55.00  0.78629    
    56.00  0.76868    
    57.00  0.75152    
    58.00  0.73479    
    59.00  0.71849    
    60.00  0.70262    
    61.00  0.68716    
    62.00  0.67212    
    63.00  0.65749    
    64.00  0.64327    
    65.00  0.62945    
    66.00  0.61603    
    67.00  0.60301    
    68.00  0.59039    
    69.00  0.57816    
    70.00  0.56631    
    71.00  0.55486    
    72.00  0.54379    
    73.00  0.53310    
    74.00  0.52279    
    75.00  0.51285    
    76.00  0.50329    
    77.00  0.49410    
    78.00  0.48527    
    79.00  0.47680    
    80.00  0.46869    
    81.00  0.46094    
    82.00  0.45353    
    83.00  0.44648    
    84.00  0.43976    
    85.00  0.43338    
    86.00  0.42734    
    87.00  0.42162    
    88.00  0.41623    
    89.00  0.41115    
    90.00  0.40639    
    91.00  0.40194    
    92.00  0.39778    
    93.00  0.39392    
    94.00  0.39036    
    95.00  0.38707    
    96.00  0.38407    
    97.00  0.38134    
    98.00  0.37888    
    99.00  0.37667    
   100.00  0.37472    
   101.00  0.37302    
   102.00  0.37156    
   103.00  0.37033    
   104.00  0.36933    
   105.00  0.36855    
   106.00  0.36799    
   107.00  0.36764    
   108.00  0.36748    
   109.00  0.36753    
   110.00  0.36775    
   111.00  0.36817    
   112.00  0.36875    
   113.00  0.36950    
   114.00  0.37042    
   115.00  0.37149    
   116.00  0.37270    
   117.00  0.37406    
   118.00  0.37555    
   119.00  0.37717    
   120.00  0.37892    
   121.00  0.38077    
   122.00  0.38274    
   123.00  0.38481    
   124.00  0.38697    
   125.00  0.38923    
   126.00  0.39157    
   127.00  0.39399    
   128.00  0.39648    
   129.00  0.39903    
   130.00  0.40165    
   131.00  0.40433    
   132.00  0.40705    
   133.00  0.40983    
   134.00  0.41264    
   135.00  0.41549    
   136.00  0.41838    
   137.00  0.42130    
   138.00  0.42424    
   139.00  0.42721    
   140.00  0.43020    
   141.00  0.43322    
   142.00  0.43626    
   143.00  0.43932    
   144.00  0.44240    
   145.00  0.44551    
   146.00  0.44863    
   147.00  0.45178    
   148.00  0.45495    
   149.00  0.45813    
   150.00  0.46131    
   151.00  0.46450    
   152.00  0.46766    
   153.00  0.47079    
   154.00  0.47384    
   155.00  0.47679    
   156.00  0.47961    
   157.00  0.48224    
   158.00  0.48464    
   159.00  0.48678    
   160.00  0.48862    
   161.00  0.49013    
   162.00  0.49132    
   163.00  0.49221    
   164.00  0.49281    
   165.00  0.49321    
   166.00  0.49349    
   167.00  0.49373    
   168.00  0.49406    
   169.00  0.49457    
   170.00  0.49534    
   171.00  0.49642    
   172.00  0.49783    
   173.00  0.49953    
   174.00  0.50144    
   175.00  0.50345    
   176.00  0.50540    
   177.00  0.50714    
   178.00  0.50852    
   179.00  0.50940    
   180.00  0.50970    
 |--------|------------|
0.600000     micron = Wavelength
0.264593     = Extinction efficiency (Q)
0.959687E-01 = Scattering efficiency (Qs)
0.168624     = Absorption efficiency (Qa)
 67.9741     = Lidar ratio
0.730525E-02 micron^2 = <b> = Average surface area per particle
0.193292E-02 microns^2 = Extinction cross section (C)
0.701075E-03 microns^2 = Scattering cross section (Cs)
0.123184E-02 microns^2 = Absorption cross section (Ca)
 |----------------------------------------------------|
 | COMMENTAIRES:                                      |
 |----------------------------------------------------|
 |   -Cross section / <b> should = efficiency         |
 |    is independant of the normalisation of dN/dx    |
 |   -The integral of the phase fct / 4 pi over all   |
 |    directions (solid angle) = 1.                   |
 |   -The volume coefficient (k) is equal to C * N    |
 |      = cross section * Number density              |
 |      typical units: [um^2]*[particles/cm^3] =      |
 |      [10^-3 km-1]                                  |
 |      N = M/(d*4/3*pi*r^3) where d is the density   |
 |      of particle, M is the mass per unit volume    |
 |      and 4/3*pi*r^3 is the average volume  of a    |
 |      particle.                                     |
 |      typical units:  M -> [ug/m^3], d -> [g/cm^3]  |
 |                      r -> [um]                     |
 |      Lidar ratio= 4 pi Qe / phase_fct(180)*Qs      |
 |----------------------------------------------------|
