 |--------|------------|
 | ANGLE  |  PHASE FCT |
 |--------|------------|
     0.00   74.097    
     1.00   71.538    
     2.00   64.575    
     3.00   54.964    
     4.00   44.653    
     5.00   35.077    
     6.00   26.959    
     7.00   20.474    
     8.00   15.504    
     9.00   11.808    
    10.00   9.1148    
    11.00   7.1783    
    12.00   5.7961    
    13.00   4.8124    
    14.00   4.1102    
    15.00   3.6052    
    16.00   3.2376    
    17.00   2.9654    
    18.00   2.7596    
    19.00   2.6001    
    20.00   2.4732    
    21.00   2.3694    
    22.00   2.2822    
    23.00   2.2072    
    24.00   2.1412    
    25.00   2.0820    
    26.00   2.0280    
    27.00   1.9781    
    28.00   1.9314    
    29.00   1.8875    
    30.00   1.8456    
    31.00   1.8056    
    32.00   1.7671    
    33.00   1.7298    
    34.00   1.6937    
    35.00   1.6585    
    36.00   1.6241    
    37.00   1.5905    
    38.00   1.5575    
    39.00   1.5251    
    40.00   1.4933    
    41.00   1.4620    
    42.00   1.4312    
    43.00   1.4008    
    44.00   1.3709    
    45.00   1.3414    
    46.00   1.3123    
    47.00   1.2836    
    48.00   1.2554    
    49.00   1.2275    
    50.00   1.2001    
    51.00   1.1732    
    52.00   1.1466    
    53.00   1.1205    
    54.00   1.0948    
    55.00   1.0696    
    56.00   1.0448    
    57.00   1.0205    
    58.00  0.99671    
    59.00  0.97336    
    60.00  0.95049    
    61.00  0.92811    
    62.00  0.90623    
    63.00  0.88485    
    64.00  0.86398    
    65.00  0.84361    
    66.00  0.82376    
    67.00  0.80443    
    68.00  0.78561    
    69.00  0.76731    
    70.00  0.74954    
    71.00  0.73228    
    72.00  0.71555    
    73.00  0.69933    
    74.00  0.68363    
    75.00  0.66845    
    76.00  0.65379    
    77.00  0.63963    
    78.00  0.62598    
    79.00  0.61283    
    80.00  0.60018    
    81.00  0.58803    
    82.00  0.57636    
    83.00  0.56517    
    84.00  0.55446    
    85.00  0.54422    
    86.00  0.53443    
    87.00  0.52511    
    88.00  0.51623    
    89.00  0.50779    
    90.00  0.49978    
    91.00  0.49220    
    92.00  0.48503    
    93.00  0.47827    
    94.00  0.47190    
    95.00  0.46592    
    96.00  0.46032    
    97.00  0.45510    
    98.00  0.45023    
    99.00  0.44572    
   100.00  0.44155    
   101.00  0.43771    
   102.00  0.43419    
   103.00  0.43099    
   104.00  0.42810    
   105.00  0.42550    
   106.00  0.42318    
   107.00  0.42114    
   108.00  0.41937    
   109.00  0.41785    
   110.00  0.41659    
   111.00  0.41556    
   112.00  0.41476    
   113.00  0.41419    
   114.00  0.41382    
   115.00  0.41366    
   116.00  0.41369    
   117.00  0.41391    
   118.00  0.41430    
   119.00  0.41487    
   120.00  0.41559    
   121.00  0.41646    
   122.00  0.41748    
   123.00  0.41863    
   124.00  0.41991    
   125.00  0.42132    
   126.00  0.42283    
   127.00  0.42445    
   128.00  0.42617    
   129.00  0.42797    
   130.00  0.42986    
   131.00  0.43183    
   132.00  0.43387    
   133.00  0.43597    
   134.00  0.43812    
   135.00  0.44033    
   136.00  0.44258    
   137.00  0.44487    
   138.00  0.44719    
   139.00  0.44954    
   140.00  0.45192    
   141.00  0.45431    
   142.00  0.45671    
   143.00  0.45912    
   144.00  0.46154    
   145.00  0.46396    
   146.00  0.46638    
   147.00  0.46880    
   148.00  0.47121    
   149.00  0.47361    
   150.00  0.47600    
   151.00  0.47838    
   152.00  0.48074    
   153.00  0.48307    
   154.00  0.48538    
   155.00  0.48764    
   156.00  0.48985    
   157.00  0.49199    
   158.00  0.49405    
   159.00  0.49600    
   160.00  0.49784    
   161.00  0.49954    
   162.00  0.50109    
   163.00  0.50248    
   164.00  0.50373    
   165.00  0.50484    
   166.00  0.50584    
   167.00  0.50675    
   168.00  0.50761    
   169.00  0.50846    
   170.00  0.50932    
   171.00  0.51023    
   172.00  0.51119    
   173.00  0.51220    
   174.00  0.51323    
   175.00  0.51425    
   176.00  0.51519    
   177.00  0.51602    
   178.00  0.51665    
   179.00  0.51706    
   180.00  0.51720    
 |--------|------------|
0.460000     micron = Wavelength
0.388974     = Extinction efficiency (Q)
0.163459     = Scattering efficiency (Qs)
0.225515     = Absorption efficiency (Qa)
 57.8183     = Lidar ratio
0.730522E-02 micron^2 = <b> = Average surface area per particle
0.284154E-02 microns^2 = Extinction cross section (C)
0.119410E-02 microns^2 = Scattering cross section (Cs)
0.164744E-02 microns^2 = Absorption cross section (Ca)
 |----------------------------------------------------|
 | COMMENTAIRES:                                      |
 |----------------------------------------------------|
 |   -Cross section / <b> should = efficiency         |
 |    is independant of the normalisation of dN/dx    |
 |   -The integral of the phase fct / 4 pi over all   |
 |    directions (solid angle) = 1.                   |
 |   -The volume coefficient (k) is equal to C * N    |
 |      = cross section * Number density              |
 |      typical units: [um^2]*[particles/cm^3] =      |
 |      [10^-3 km-1]                                  |
 |      N = M/(d*4/3*pi*r^3) where d is the density   |
 |      of particle, M is the mass per unit volume    |
 |      and 4/3*pi*r^3 is the average volume  of a    |
 |      particle.                                     |
 |      typical units:  M -> [ug/m^3], d -> [g/cm^3]  |
 |                      r -> [um]                     |
 |      Lidar ratio= 4 pi Qe / phase_fct(180)*Qs      |
 |----------------------------------------------------|
