 |--------|------------|
 | ANGLE  |  PHASE FCT |
 |--------|------------|
     0.00   82.929    
     1.00   79.204    
     2.00   69.304    
     3.00   56.259    
     4.00   43.170    
     5.00   31.969    
     6.00   23.268    
     7.00   16.888    
     8.00   12.379    
     9.00   9.2768    
    10.00   7.1750    
    11.00   5.7578    
    12.00   4.8003    
    13.00   4.1483    
    14.00   3.6967    
    15.00   3.3760    
    16.00   3.1416    
    17.00   2.9647    
    18.00   2.8259    
    19.00   2.7132    
    20.00   2.6189    
    21.00   2.5374    
    22.00   2.4654    
    23.00   2.4004    
    24.00   2.3408    
    25.00   2.2854    
    26.00   2.2333    
    27.00   2.1839    
    28.00   2.1367    
    29.00   2.0913    
    30.00   2.0473    
    31.00   2.0047    
    32.00   1.9630    
    33.00   1.9223    
    34.00   1.8824    
    35.00   1.8432    
    36.00   1.8046    
    37.00   1.7665    
    38.00   1.7290    
    39.00   1.6920    
    40.00   1.6554    
    41.00   1.6192    
    42.00   1.5835    
    43.00   1.5482    
    44.00   1.5134    
    45.00   1.4790    
    46.00   1.4450    
    47.00   1.4115    
    48.00   1.3785    
    49.00   1.3459    
    50.00   1.3138    
    51.00   1.2822    
    52.00   1.2511    
    53.00   1.2205    
    54.00   1.1904    
    55.00   1.1609    
    56.00   1.1319    
    57.00   1.1035    
    58.00   1.0757    
    59.00   1.0485    
    60.00   1.0218    
    61.00  0.99574    
    62.00  0.97026    
    63.00  0.94540    
    64.00  0.92115    
    65.00  0.89750    
    66.00  0.87448    
    67.00  0.85207    
    68.00  0.83027    
    69.00  0.80910    
    70.00  0.78854    
    71.00  0.76859    
    72.00  0.74926    
    73.00  0.73054    
    74.00  0.71242    
    75.00  0.69490    
    76.00  0.67798    
    77.00  0.66164    
    78.00  0.64589    
    79.00  0.63071    
    80.00  0.61611    
    81.00  0.60206    
    82.00  0.58857    
    83.00  0.57563    
    84.00  0.56321    
    85.00  0.55133    
    86.00  0.53996    
    87.00  0.52910    
    88.00  0.51874    
    89.00  0.50886    
    90.00  0.49946    
    91.00  0.49052    
    92.00  0.48204    
    93.00  0.47401    
    94.00  0.46640    
    95.00  0.45923    
    96.00  0.45246    
    97.00  0.44609    
    98.00  0.44011    
    99.00  0.43452    
   100.00  0.42928    
   101.00  0.42441    
   102.00  0.41988    
   103.00  0.41569    
   104.00  0.41182    
   105.00  0.40826    
   106.00  0.40501    
   107.00  0.40205    
   108.00  0.39937    
   109.00  0.39697    
   110.00  0.39483    
   111.00  0.39293    
   112.00  0.39129    
   113.00  0.38987    
   114.00  0.38868    
   115.00  0.38770    
   116.00  0.38692    
   117.00  0.38634    
   118.00  0.38595    
   119.00  0.38573    
   120.00  0.38568    
   121.00  0.38580    
   122.00  0.38607    
   123.00  0.38648    
   124.00  0.38703    
   125.00  0.38770    
   126.00  0.38850    
   127.00  0.38941    
   128.00  0.39043    
   129.00  0.39155    
   130.00  0.39276    
   131.00  0.39405    
   132.00  0.39543    
   133.00  0.39688    
   134.00  0.39839    
   135.00  0.39996    
   136.00  0.40159    
   137.00  0.40326    
   138.00  0.40498    
   139.00  0.40673    
   140.00  0.40852    
   141.00  0.41033    
   142.00  0.41216    
   143.00  0.41401    
   144.00  0.41588    
   145.00  0.41775    
   146.00  0.41962    
   147.00  0.42150    
   148.00  0.42337    
   149.00  0.42524    
   150.00  0.42710    
   151.00  0.42895    
   152.00  0.43078    
   153.00  0.43261    
   154.00  0.43441    
   155.00  0.43619    
   156.00  0.43794    
   157.00  0.43964    
   158.00  0.44130    
   159.00  0.44290    
   160.00  0.44443    
   161.00  0.44588    
   162.00  0.44723    
   163.00  0.44848    
   164.00  0.44961    
   165.00  0.45065    
   166.00  0.45159    
   167.00  0.45244    
   168.00  0.45322    
   169.00  0.45397    
   170.00  0.45469    
   171.00  0.45540    
   172.00  0.45612    
   173.00  0.45685    
   174.00  0.45757    
   175.00  0.45827    
   176.00  0.45891    
   177.00  0.45946    
   178.00  0.45989    
   179.00  0.46016    
   180.00  0.46025    
 |--------|------------|
0.480000     micron = Wavelength
0.466258     = Extinction efficiency (Q)
0.210446     = Scattering efficiency (Qs)
0.255812     = Absorption efficiency (Qa)
 60.4919     = Lidar ratio
0.100542E-01 micron^2 = <b> = Average surface area per particle
0.468784E-02 microns^2 = Extinction cross section (C)
0.211586E-02 microns^2 = Scattering cross section (Cs)
0.257198E-02 microns^2 = Absorption cross section (Ca)
 |----------------------------------------------------|
 | COMMENTAIRES:                                      |
 |----------------------------------------------------|
 |   -Cross section / <b> should = efficiency         |
 |    is independant of the normalisation of dN/dx    |
 |   -The integral of the phase fct / 4 pi over all   |
 |    directions (solid angle) = 1.                   |
 |   -The volume coefficient (k) is equal to C * N    |
 |      = cross section * Number density              |
 |      typical units: [um^2]*[particles/cm^3] =      |
 |      [10^-3 km-1]                                  |
 |      N = M/(d*4/3*pi*r^3) where d is the density   |
 |      of particle, M is the mass per unit volume    |
 |      and 4/3*pi*r^3 is the average volume  of a    |
 |      particle.                                     |
 |      typical units:  M -> [ug/m^3], d -> [g/cm^3]  |
 |                      r -> [um]                     |
 |      Lidar ratio= 4 pi Qe / phase_fct(180)*Qs      |
 |----------------------------------------------------|
