 |--------|------------|
 | ANGLE  |  PHASE FCT |
 |--------|------------|
     0.00   40.252    
     1.00   39.961    
     2.00   39.107    
     3.00   37.745    
     4.00   35.955    
     5.00   33.836    
     6.00   31.488    
     7.00   29.011    
     8.00   26.491    
     9.00   24.002    
    10.00   21.600    
    11.00   19.326    
    12.00   17.210    
    13.00   15.265    
    14.00   13.500    
    15.00   11.913    
    16.00   10.498    
    17.00   9.2455    
    18.00   8.1431    
    19.00   7.1778    
    20.00   6.3360    
    21.00   5.6044    
    22.00   4.9701    
    23.00   4.4213    
    24.00   3.9470    
    25.00   3.5374    
    26.00   3.1836    
    27.00   2.8779    
    28.00   2.6133    
    29.00   2.3841    
    30.00   2.1849    
    31.00   2.0115    
    32.00   1.8599    
    33.00   1.7269    
    34.00   1.6098    
    35.00   1.5062    
    36.00   1.4141    
    37.00   1.3319    
    38.00   1.2581    
    39.00   1.1915    
    40.00   1.1312    
    41.00   1.0762    
    42.00   1.0259    
    43.00  0.97958    
    44.00  0.93684    
    45.00  0.89720    
    46.00  0.86032    
    47.00  0.82587    
    48.00  0.79360    
    49.00  0.76328    
    50.00  0.73472    
    51.00  0.70777    
    52.00  0.68228    
    53.00  0.65812    
    54.00  0.63520    
    55.00  0.61341    
    56.00  0.59270    
    57.00  0.57296    
    58.00  0.55415    
    59.00  0.53621    
    60.00  0.51908    
    61.00  0.50272    
    62.00  0.48710    
    63.00  0.47217    
    64.00  0.45789    
    65.00  0.44424    
    66.00  0.43119    
    67.00  0.41870    
    68.00  0.40676    
    69.00  0.39534    
    70.00  0.38442    
    71.00  0.37397    
    72.00  0.36398    
    73.00  0.35443    
    74.00  0.34530    
    75.00  0.33658    
    76.00  0.32825    
    77.00  0.32029    
    78.00  0.31270    
    79.00  0.30546    
    80.00  0.29855    
    81.00  0.29197    
    82.00  0.28570    
    83.00  0.27974    
    84.00  0.27406    
    85.00  0.26867    
    86.00  0.26355    
    87.00  0.25870    
    88.00  0.25410    
    89.00  0.24975    
    90.00  0.24564    
    91.00  0.24175    
    92.00  0.23810    
    93.00  0.23465    
    94.00  0.23142    
    95.00  0.22840    
    96.00  0.22557    
    97.00  0.22293    
    98.00  0.22047    
    99.00  0.21820    
   100.00  0.21610    
   101.00  0.21417    
   102.00  0.21240    
   103.00  0.21079    
   104.00  0.20933    
   105.00  0.20803    
   106.00  0.20687    
   107.00  0.20584    
   108.00  0.20496    
   109.00  0.20421    
   110.00  0.20359    
   111.00  0.20310    
   112.00  0.20273    
   113.00  0.20248    
   114.00  0.20235    
   115.00  0.20233    
   116.00  0.20242    
   117.00  0.20262    
   118.00  0.20294    
   119.00  0.20336    
   120.00  0.20388    
   121.00  0.20451    
   122.00  0.20525    
   123.00  0.20608    
   124.00  0.20702    
   125.00  0.20807    
   126.00  0.20921    
   127.00  0.21046    
   128.00  0.21182    
   129.00  0.21328    
   130.00  0.21485    
   131.00  0.21652    
   132.00  0.21829    
   133.00  0.22018    
   134.00  0.22216    
   135.00  0.22425    
   136.00  0.22643    
   137.00  0.22870    
   138.00  0.23106    
   139.00  0.23348    
   140.00  0.23597    
   141.00  0.23849    
   142.00  0.24104    
   143.00  0.24358    
   144.00  0.24609    
   145.00  0.24853    
   146.00  0.25086    
   147.00  0.25306    
   148.00  0.25507    
   149.00  0.25686    
   150.00  0.25837    
   151.00  0.25958    
   152.00  0.26046    
   153.00  0.26097    
   154.00  0.26110    
   155.00  0.26087    
   156.00  0.26029    
   157.00  0.25939    
   158.00  0.25824    
   159.00  0.25692    
   160.00  0.25553    
   161.00  0.25419    
   162.00  0.25303    
   163.00  0.25218    
   164.00  0.25178    
   165.00  0.25195    
   166.00  0.25280    
   167.00  0.25440    
   168.00  0.25677    
   169.00  0.25992    
   170.00  0.26379    
   171.00  0.26825    
   172.00  0.27316    
   173.00  0.27831    
   174.00  0.28348    
   175.00  0.28842    
   176.00  0.29288    
   177.00  0.29663    
   178.00  0.29947    
   179.00  0.30124    
   180.00  0.30184    
 |--------|------------|
0.600000     micron = Wavelength
0.168350     = Extinction efficiency (Q)
0.636474E-01 = Scattering efficiency (Qs)
0.104702     = Absorption efficiency (Qa)
 110.120     = Lidar ratio
0.259482E-02 micron^2 = <b> = Average surface area per particle
0.436838E-03 microns^2 = Extinction cross section (C)
0.165154E-03 microns^2 = Scattering cross section (Cs)
0.271684E-03 microns^2 = Absorption cross section (Ca)
 |----------------------------------------------------|
 | COMMENTAIRES:                                      |
 |----------------------------------------------------|
 |   -Cross section / <b> should = efficiency         |
 |    is independant of the normalisation of dN/dx    |
 |   -The integral of the phase fct / 4 pi over all   |
 |    directions (solid angle) = 1.                   |
 |   -The volume coefficient (k) is equal to C * N    |
 |      = cross section * Number density              |
 |      typical units: [um^2]*[particles/cm^3] =      |
 |      [10^-3 km-1]                                  |
 |      N = M/(d*4/3*pi*r^3) where d is the density   |
 |      of particle, M is the mass per unit volume    |
 |      and 4/3*pi*r^3 is the average volume  of a    |
 |      particle.                                     |
 |      typical units:  M -> [ug/m^3], d -> [g/cm^3]  |
 |                      r -> [um]                     |
 |      Lidar ratio= 4 pi Qe / phase_fct(180)*Qs      |
 |----------------------------------------------------|
