 |--------|------------|
 | ANGLE  |  PHASE FCT |
 |--------|------------|
     0.00   49.616    
     1.00   49.120    
     2.00   47.677    
     3.00   45.410    
     4.00   42.497    
     5.00   39.142    
     6.00   35.542    
     7.00   31.874    
     8.00   28.279    
     9.00   24.863    
    10.00   21.695    
    11.00   18.817    
    12.00   16.244    
    13.00   13.976    
    14.00   11.999    
    15.00   10.293    
    16.00   8.8318    
    17.00   7.5885    
    18.00   6.5365    
    19.00   5.6499    
    20.00   4.9054    
    21.00   4.2814    
    22.00   3.7592    
    23.00   3.3224    
    24.00   2.9569    
    25.00   2.6508    
    26.00   2.3938    
    27.00   2.1774    
    28.00   1.9946    
    29.00   1.8393    
    30.00   1.7067    
    31.00   1.5929    
    32.00   1.4945    
    33.00   1.4087    
    34.00   1.3335    
    35.00   1.2669    
    36.00   1.2075    
    37.00   1.1542    
    38.00   1.1059    
    39.00   1.0618    
    40.00   1.0214    
    41.00  0.98396    
    42.00  0.94920    
    43.00  0.91673    
    44.00  0.88625    
    45.00  0.85752    
    46.00  0.83036    
    47.00  0.80459    
    48.00  0.78008    
    49.00  0.75672    
    50.00  0.73440    
    51.00  0.71305    
    52.00  0.69261    
    53.00  0.67300    
    54.00  0.65418    
    55.00  0.63609    
    56.00  0.61871    
    57.00  0.60200    
    58.00  0.58592    
    59.00  0.57044    
    60.00  0.55554    
    61.00  0.54120    
    62.00  0.52739    
    63.00  0.51410    
    64.00  0.50130    
    65.00  0.48899    
    66.00  0.47714    
    67.00  0.46573    
    68.00  0.45477    
    69.00  0.44422    
    70.00  0.43409    
    71.00  0.42435    
    72.00  0.41500    
    73.00  0.40603    
    74.00  0.39743    
    75.00  0.38918    
    76.00  0.38128    
    77.00  0.37372    
    78.00  0.36650    
    79.00  0.35959    
    80.00  0.35301    
    81.00  0.34672    
    82.00  0.34074    
    83.00  0.33506    
    84.00  0.32966    
    85.00  0.32454    
    86.00  0.31969    
    87.00  0.31511    
    88.00  0.31079    
    89.00  0.30673    
    90.00  0.30291    
    91.00  0.29934    
    92.00  0.29601    
    93.00  0.29290    
    94.00  0.29003    
    95.00  0.28737    
    96.00  0.28492    
    97.00  0.28269    
    98.00  0.28066    
    99.00  0.27883    
   100.00  0.27720    
   101.00  0.27575    
   102.00  0.27449    
   103.00  0.27341    
   104.00  0.27250    
   105.00  0.27176    
   106.00  0.27118    
   107.00  0.27076    
   108.00  0.27050    
   109.00  0.27039    
   110.00  0.27042    
   111.00  0.27060    
   112.00  0.27091    
   113.00  0.27135    
   114.00  0.27192    
   115.00  0.27262    
   116.00  0.27344    
   117.00  0.27437    
   118.00  0.27542    
   119.00  0.27657    
   120.00  0.27784    
   121.00  0.27920    
   122.00  0.28067    
   123.00  0.28224    
   124.00  0.28390    
   125.00  0.28566    
   126.00  0.28752    
   127.00  0.28946    
   128.00  0.29150    
   129.00  0.29362    
   130.00  0.29584    
   131.00  0.29815    
   132.00  0.30055    
   133.00  0.30305    
   134.00  0.30563    
   135.00  0.30831    
   136.00  0.31108    
   137.00  0.31394    
   138.00  0.31688    
   139.00  0.31991    
   140.00  0.32301    
   141.00  0.32618    
   142.00  0.32940    
   143.00  0.33267    
   144.00  0.33595    
   145.00  0.33922    
   146.00  0.34246    
   147.00  0.34563    
   148.00  0.34870    
   149.00  0.35161    
   150.00  0.35434    
   151.00  0.35682    
   152.00  0.35903    
   153.00  0.36093    
   154.00  0.36248    
   155.00  0.36366    
   156.00  0.36448    
   157.00  0.36495    
   158.00  0.36509    
   159.00  0.36497    
   160.00  0.36467    
   161.00  0.36429    
   162.00  0.36395    
   163.00  0.36377    
   164.00  0.36389    
   165.00  0.36445    
   166.00  0.36556    
   167.00  0.36731    
   168.00  0.36977    
   169.00  0.37293    
   170.00  0.37677    
   171.00  0.38120    
   172.00  0.38607    
   173.00  0.39120    
   174.00  0.39637    
   175.00  0.40132    
   176.00  0.40581    
   177.00  0.40959    
   178.00  0.41246    
   179.00  0.41425    
   180.00  0.41486    
 |--------|------------|
0.510000     micron = Wavelength
0.188496     = Extinction efficiency (Q)
0.666915E-01 = Scattering efficiency (Qs)
0.121805     = Absorption efficiency (Qa)
 85.6138     = Lidar ratio
0.259482E-02 micron^2 = <b> = Average surface area per particle
0.489113E-03 microns^2 = Extinction cross section (C)
0.173052E-03 microns^2 = Scattering cross section (Cs)
0.316061E-03 microns^2 = Absorption cross section (Ca)
 |----------------------------------------------------|
 | COMMENTAIRES:                                      |
 |----------------------------------------------------|
 |   -Cross section / <b> should = efficiency         |
 |    is independant of the normalisation of dN/dx    |
 |   -The integral of the phase fct / 4 pi over all   |
 |    directions (solid angle) = 1.                   |
 |   -The volume coefficient (k) is equal to C * N    |
 |      = cross section * Number density              |
 |      typical units: [um^2]*[particles/cm^3] =      |
 |      [10^-3 km-1]                                  |
 |      N = M/(d*4/3*pi*r^3) where d is the density   |
 |      of particle, M is the mass per unit volume    |
 |      and 4/3*pi*r^3 is the average volume  of a    |
 |      particle.                                     |
 |      typical units:  M -> [ug/m^3], d -> [g/cm^3]  |
 |                      r -> [um]                     |
 |      Lidar ratio= 4 pi Qe / phase_fct(180)*Qs      |
 |----------------------------------------------------|
