 |--------|------------|
 | ANGLE  |  PHASE FCT |
 |--------|------------|
     0.00   37.447    
     1.00   37.202    
     2.00   36.482    
     3.00   35.327    
     4.00   33.803    
     5.00   31.984    
     6.00   29.953    
     7.00   27.791    
     8.00   25.570    
     9.00   23.352    
    10.00   21.190    
    11.00   19.121    
    12.00   17.173    
    13.00   15.363    
    14.00   13.702    
    15.00   12.191    
    16.00   10.828    
    17.00   9.6089    
    18.00   8.5238    
    19.00   7.5633    
    20.00   6.7165    
    21.00   5.9728    
    22.00   5.3213    
    23.00   4.7520    
    24.00   4.2552    
    25.00   3.8221    
    26.00   3.4448    
    27.00   3.1158    
    28.00   2.8290    
    29.00   2.5787    
    30.00   2.3598    
    31.00   2.1680    
    32.00   1.9995    
    33.00   1.8511    
    34.00   1.7200    
    35.00   1.6037    
    36.00   1.5002    
    37.00   1.4077    
    38.00   1.3247    
    39.00   1.2498    
    40.00   1.1821    
    41.00   1.1205    
    42.00   1.0643    
    43.00   1.0127    
    44.00  0.96533    
    45.00  0.92151    
    46.00  0.88089    
    47.00  0.84311    
    48.00  0.80786    
    49.00  0.77488    
    50.00  0.74395    
    51.00  0.71486    
    52.00  0.68745    
    53.00  0.66158    
    54.00  0.63712    
    55.00  0.61395    
    56.00  0.59198    
    57.00  0.57113    
    58.00  0.55130    
    59.00  0.53244    
    60.00  0.51450    
    61.00  0.49740    
    62.00  0.48110    
    63.00  0.46556    
    64.00  0.45073    
    65.00  0.43658    
    66.00  0.42307    
    67.00  0.41017    
    68.00  0.39785    
    69.00  0.38609    
    70.00  0.37486    
    71.00  0.36413    
    72.00  0.35388    
    73.00  0.34409    
    74.00  0.33475    
    75.00  0.32583    
    76.00  0.31731    
    77.00  0.30919    
    78.00  0.30144    
    79.00  0.29405    
    80.00  0.28700    
    81.00  0.28029    
    82.00  0.27389    
    83.00  0.26780    
    84.00  0.26201    
    85.00  0.25651    
    86.00  0.25128    
    87.00  0.24632    
    88.00  0.24161    
    89.00  0.23715    
    90.00  0.23293    
    91.00  0.22894    
    92.00  0.22517    
    93.00  0.22162    
    94.00  0.21827    
    95.00  0.21512    
    96.00  0.21217    
    97.00  0.20941    
    98.00  0.20683    
    99.00  0.20443    
   100.00  0.20219    
   101.00  0.20012    
   102.00  0.19821    
   103.00  0.19646    
   104.00  0.19486    
   105.00  0.19340    
   106.00  0.19209    
   107.00  0.19091    
   108.00  0.18986    
   109.00  0.18895    
   110.00  0.18817    
   111.00  0.18750    
   112.00  0.18696    
   113.00  0.18654    
   114.00  0.18623    
   115.00  0.18603    
   116.00  0.18595    
   117.00  0.18598    
   118.00  0.18611    
   119.00  0.18635    
   120.00  0.18670    
   121.00  0.18715    
   122.00  0.18771    
   123.00  0.18837    
   124.00  0.18913    
   125.00  0.19000    
   126.00  0.19097    
   127.00  0.19205    
   128.00  0.19324    
   129.00  0.19453    
   130.00  0.19592    
   131.00  0.19742    
   132.00  0.19902    
   133.00  0.20073    
   134.00  0.20254    
   135.00  0.20444    
   136.00  0.20643    
   137.00  0.20850    
   138.00  0.21064    
   139.00  0.21284    
   140.00  0.21509    
   141.00  0.21736    
   142.00  0.21963    
   143.00  0.22188    
   144.00  0.22407    
   145.00  0.22618    
   146.00  0.22816    
   147.00  0.22998    
   148.00  0.23160    
   149.00  0.23298    
   150.00  0.23408    
   151.00  0.23487    
   152.00  0.23532    
   153.00  0.23542    
   154.00  0.23516    
   155.00  0.23455    
   156.00  0.23362    
   157.00  0.23241    
   158.00  0.23099    
   159.00  0.22944    
   160.00  0.22785    
   161.00  0.22635    
   162.00  0.22506    
   163.00  0.22411    
   164.00  0.22362    
   165.00  0.22371    
   166.00  0.22446    
   167.00  0.22594    
   168.00  0.22818    
   169.00  0.23116    
   170.00  0.23481    
   171.00  0.23902    
   172.00  0.24364    
   173.00  0.24849    
   174.00  0.25335    
   175.00  0.25798    
   176.00  0.26216    
   177.00  0.26567    
   178.00  0.26833    
   179.00  0.26998    
   180.00  0.27054    
 |--------|------------|
0.630000     micron = Wavelength
0.164584     = Extinction efficiency (Q)
0.636372E-01 = Scattering efficiency (Qs)
0.100946     = Absorption efficiency (Qa)
 120.131     = Lidar ratio
0.259481E-02 micron^2 = <b> = Average surface area per particle
0.427064E-03 microns^2 = Extinction cross section (C)
0.165127E-03 microns^2 = Scattering cross section (Cs)
0.261937E-03 microns^2 = Absorption cross section (Ca)
 |----------------------------------------------------|
 | COMMENTAIRES:                                      |
 |----------------------------------------------------|
 |   -Cross section / <b> should = efficiency         |
 |    is independant of the normalisation of dN/dx    |
 |   -The integral of the phase fct / 4 pi over all   |
 |    directions (solid angle) = 1.                   |
 |   -The volume coefficient (k) is equal to C * N    |
 |      = cross section * Number density              |
 |      typical units: [um^2]*[particles/cm^3] =      |
 |      [10^-3 km-1]                                  |
 |      N = M/(d*4/3*pi*r^3) where d is the density   |
 |      of particle, M is the mass per unit volume    |
 |      and 4/3*pi*r^3 is the average volume  of a    |
 |      particle.                                     |
 |      typical units:  M -> [ug/m^3], d -> [g/cm^3]  |
 |                      r -> [um]                     |
 |      Lidar ratio= 4 pi Qe / phase_fct(180)*Qs      |
 |----------------------------------------------------|
