 |--------|------------|
 | ANGLE  |  PHASE FCT |
 |--------|------------|
     0.00   115.70    
     1.00   109.29    
     2.00   92.586    
     3.00   71.467    
     4.00   51.547    
     5.00   35.786    
     6.00   24.540    
     7.00   16.932    
     8.00   11.937    
     9.00   8.7308    
    10.00   6.6916    
    11.00   5.3842    
    12.00   4.5334    
    13.00   3.9693    
    14.00   3.5822    
    15.00   3.3048    
    16.00   3.0984    
    17.00   2.9388    
    18.00   2.8097    
    19.00   2.7018    
    20.00   2.6096    
    21.00   2.5286    
    22.00   2.4560    
    23.00   2.3901    
    24.00   2.3294    
    25.00   2.2729    
    26.00   2.2197    
    27.00   2.1693    
    28.00   2.1212    
    29.00   2.0749    
    30.00   2.0301    
    31.00   1.9867    
    32.00   1.9444    
    33.00   1.9030    
    34.00   1.8625    
    35.00   1.8227    
    36.00   1.7835    
    37.00   1.7450    
    38.00   1.7069    
    39.00   1.6694    
    40.00   1.6323    
    41.00   1.5958    
    42.00   1.5597    
    43.00   1.5241    
    44.00   1.4889    
    45.00   1.4541    
    46.00   1.4199    
    47.00   1.3861    
    48.00   1.3528    
    49.00   1.3200    
    50.00   1.2877    
    51.00   1.2560    
    52.00   1.2247    
    53.00   1.1940    
    54.00   1.1639    
    55.00   1.1343    
    56.00   1.1053    
    57.00   1.0769    
    58.00   1.0491    
    59.00   1.0218    
    60.00  0.99520    
    61.00  0.96917    
    62.00  0.94376    
    63.00  0.91897    
    64.00  0.89481    
    65.00  0.87126    
    66.00  0.84835    
    67.00  0.82605    
    68.00  0.80439    
    69.00  0.78335    
    70.00  0.76293    
    71.00  0.74313    
    72.00  0.72395    
    73.00  0.70537    
    74.00  0.68741    
    75.00  0.67005    
    76.00  0.65328    
    77.00  0.63710    
    78.00  0.62150    
    79.00  0.60648    
    80.00  0.59202    
    81.00  0.57812    
    82.00  0.56477    
    83.00  0.55196    
    84.00  0.53968    
    85.00  0.52792    
    86.00  0.51666    
    87.00  0.50591    
    88.00  0.49565    
    89.00  0.48587    
    90.00  0.47655    
    91.00  0.46769    
    92.00  0.45928    
    93.00  0.45131    
    94.00  0.44375    
    95.00  0.43661    
    96.00  0.42988    
    97.00  0.42353    
    98.00  0.41756    
    99.00  0.41196    
   100.00  0.40672    
   101.00  0.40183    
   102.00  0.39727    
   103.00  0.39304    
   104.00  0.38912    
   105.00  0.38550    
   106.00  0.38218    
   107.00  0.37914    
   108.00  0.37638    
   109.00  0.37388    
   110.00  0.37163    
   111.00  0.36962    
   112.00  0.36785    
   113.00  0.36631    
   114.00  0.36497    
   115.00  0.36385    
   116.00  0.36292    
   117.00  0.36218    
   118.00  0.36163    
   119.00  0.36124    
   120.00  0.36101    
   121.00  0.36095    
   122.00  0.36102    
   123.00  0.36124    
   124.00  0.36159    
   125.00  0.36207    
   126.00  0.36266    
   127.00  0.36336    
   128.00  0.36417    
   129.00  0.36507    
   130.00  0.36607    
   131.00  0.36714    
   132.00  0.36830    
   133.00  0.36952    
   134.00  0.37081    
   135.00  0.37216    
   136.00  0.37357    
   137.00  0.37502    
   138.00  0.37651    
   139.00  0.37804    
   140.00  0.37961    
   141.00  0.38120    
   142.00  0.38281    
   143.00  0.38444    
   144.00  0.38609    
   145.00  0.38774    
   146.00  0.38940    
   147.00  0.39106    
   148.00  0.39272    
   149.00  0.39437    
   150.00  0.39602    
   151.00  0.39766    
   152.00  0.39928    
   153.00  0.40089    
   154.00  0.40249    
   155.00  0.40406    
   156.00  0.40561    
   157.00  0.40714    
   158.00  0.40863    
   159.00  0.41007    
   160.00  0.41146    
   161.00  0.41279    
   162.00  0.41405    
   163.00  0.41521    
   164.00  0.41629    
   165.00  0.41727    
   166.00  0.41815    
   167.00  0.41895    
   168.00  0.41968    
   169.00  0.42035    
   170.00  0.42099    
   171.00  0.42162    
   172.00  0.42224    
   173.00  0.42285    
   174.00  0.42347    
   175.00  0.42406    
   176.00  0.42461    
   177.00  0.42509    
   178.00  0.42546    
   179.00  0.42569    
   180.00  0.42577    
 |--------|------------|
0.569000     micron = Wavelength
0.492996     = Extinction efficiency (Q)
0.228227     = Scattering efficiency (Qs)
0.264769     = Absorption efficiency (Qa)
 63.7545     = Lidar ratio
0.151645E-01 micron^2 = <b> = Average surface area per particle
0.747603E-02 microns^2 = Extinction cross section (C)
0.346094E-02 microns^2 = Scattering cross section (Cs)
0.401509E-02 microns^2 = Absorption cross section (Ca)
 |----------------------------------------------------|
 | COMMENTAIRES:                                      |
 |----------------------------------------------------|
 |   -Cross section / <b> should = efficiency         |
 |    is independant of the normalisation of dN/dx    |
 |   -The integral of the phase fct / 4 pi over all   |
 |    directions (solid angle) = 1.                   |
 |   -The volume coefficient (k) is equal to C * N    |
 |      = cross section * Number density              |
 |      typical units: [um^2]*[particles/cm^3] =      |
 |      [10^-3 km-1]                                  |
 |      N = M/(d*4/3*pi*r^3) where d is the density   |
 |      of particle, M is the mass per unit volume    |
 |      and 4/3*pi*r^3 is the average volume  of a    |
 |      particle.                                     |
 |      typical units:  M -> [ug/m^3], d -> [g/cm^3]  |
 |                      r -> [um]                     |
 |      Lidar ratio= 4 pi Qe / phase_fct(180)*Qs      |
 |----------------------------------------------------|
