 |--------|------------|
 | ANGLE  |  PHASE FCT |
 |--------|------------|
     0.00   70.951    
     1.00   69.863    
     2.00   66.745    
     3.00   61.993    
     4.00   56.138    
     5.00   49.728    
     6.00   43.232    
     7.00   37.008    
     8.00   31.284    
     9.00   26.187    
    10.00   21.762    
    11.00   17.997    
    12.00   14.844    
    13.00   12.238    
    14.00   10.104    
    15.00   8.3727    
    16.00   6.9755    
    17.00   5.8533    
    18.00   4.9543    
    19.00   4.2351    
    20.00   3.6597    
    21.00   3.1986    
    22.00   2.8280    
    23.00   2.5287    
    24.00   2.2856    
    25.00   2.0867    
    26.00   1.9225    
    27.00   1.7855    
    28.00   1.6702    
    29.00   1.5718    
    30.00   1.4869    
    31.00   1.4127    
    32.00   1.3472    
    33.00   1.2887    
    34.00   1.2359    
    35.00   1.1878    
    36.00   1.1435    
    37.00   1.1026    
    38.00   1.0645    
    39.00   1.0287    
    40.00  0.99512    
    41.00  0.96334    
    42.00  0.93320    
    43.00  0.90454    
    44.00  0.87722    
    45.00  0.85112    
    46.00  0.82615    
    47.00  0.80223    
    48.00  0.77927    
    49.00  0.75723    
    50.00  0.73605    
    51.00  0.71567    
    52.00  0.69605    
    53.00  0.67717    
    54.00  0.65897    
    55.00  0.64144    
    56.00  0.62454    
    57.00  0.60825    
    58.00  0.59254    
    59.00  0.57739    
    60.00  0.56279    
    61.00  0.54870    
    62.00  0.53512    
    63.00  0.52203    
    64.00  0.50941    
    65.00  0.49725    
    66.00  0.48554    
    67.00  0.47426    
    68.00  0.46340    
    69.00  0.45295    
    70.00  0.44290    
    71.00  0.43325    
    72.00  0.42397    
    73.00  0.41507    
    74.00  0.40653    
    75.00  0.39834    
    76.00  0.39050    
    77.00  0.38301    
    78.00  0.37584    
    79.00  0.36900    
    80.00  0.36247    
    81.00  0.35626    
    82.00  0.35035    
    83.00  0.34474    
    84.00  0.33942    
    85.00  0.33438    
    86.00  0.32963    
    87.00  0.32515    
    88.00  0.32094    
    89.00  0.31699    
    90.00  0.31329    
    91.00  0.30985    
    92.00  0.30665    
    93.00  0.30369    
    94.00  0.30096    
    95.00  0.29846    
    96.00  0.29619    
    97.00  0.29413    
    98.00  0.29228    
    99.00  0.29064    
   100.00  0.28920    
   101.00  0.28795    
   102.00  0.28690    
   103.00  0.28603    
   104.00  0.28534    
   105.00  0.28482    
   106.00  0.28447    
   107.00  0.28429    
   108.00  0.28426    
   109.00  0.28439    
   110.00  0.28466    
   111.00  0.28508    
   112.00  0.28563    
   113.00  0.28632    
   114.00  0.28713    
   115.00  0.28807    
   116.00  0.28912    
   117.00  0.29029    
   118.00  0.29156    
   119.00  0.29294    
   120.00  0.29441    
   121.00  0.29598    
   122.00  0.29764    
   123.00  0.29938    
   124.00  0.30120    
   125.00  0.30310    
   126.00  0.30507    
   127.00  0.30711    
   128.00  0.30921    
   129.00  0.31137    
   130.00  0.31359    
   131.00  0.31587    
   132.00  0.31821    
   133.00  0.32059    
   134.00  0.32302    
   135.00  0.32550    
   136.00  0.32804    
   137.00  0.33061    
   138.00  0.33324    
   139.00  0.33592    
   140.00  0.33865    
   141.00  0.34143    
   142.00  0.34427    
   143.00  0.34716    
   144.00  0.35011    
   145.00  0.35311    
   146.00  0.35616    
   147.00  0.35926    
   148.00  0.36239    
   149.00  0.36555    
   150.00  0.36870    
   151.00  0.37183    
   152.00  0.37491    
   153.00  0.37788    
   154.00  0.38071    
   155.00  0.38334    
   156.00  0.38572    
   157.00  0.38778    
   158.00  0.38949    
   159.00  0.39080    
   160.00  0.39168    
   161.00  0.39214    
   162.00  0.39218    
   163.00  0.39188    
   164.00  0.39130    
   165.00  0.39056    
   166.00  0.38980    
   167.00  0.38915    
   168.00  0.38876    
   169.00  0.38875    
   170.00  0.38922    
   171.00  0.39023    
   172.00  0.39176    
   173.00  0.39375    
   174.00  0.39608    
   175.00  0.39857    
   176.00  0.40102    
   177.00  0.40322    
   178.00  0.40496    
   179.00  0.40607    
   180.00  0.40646    
 |--------|------------|
0.720000     micron = Wavelength
0.218340     = Extinction efficiency (Q)
0.759857E-01 = Scattering efficiency (Qs)
0.142354     = Absorption efficiency (Qa)
 88.8371     = Lidar ratio
0.730527E-02 micron^2 = <b> = Average surface area per particle
0.159503E-02 microns^2 = Extinction cross section (C)
0.555096E-03 microns^2 = Scattering cross section (Cs)
0.103994E-02 microns^2 = Absorption cross section (Ca)
 |----------------------------------------------------|
 | COMMENTAIRES:                                      |
 |----------------------------------------------------|
 |   -Cross section / <b> should = efficiency         |
 |    is independant of the normalisation of dN/dx    |
 |   -The integral of the phase fct / 4 pi over all   |
 |    directions (solid angle) = 1.                   |
 |   -The volume coefficient (k) is equal to C * N    |
 |      = cross section * Number density              |
 |      typical units: [um^2]*[particles/cm^3] =      |
 |      [10^-3 km-1]                                  |
 |      N = M/(d*4/3*pi*r^3) where d is the density   |
 |      of particle, M is the mass per unit volume    |
 |      and 4/3*pi*r^3 is the average volume  of a    |
 |      particle.                                     |
 |      typical units:  M -> [ug/m^3], d -> [g/cm^3]  |
 |                      r -> [um]                     |
 |      Lidar ratio= 4 pi Qe / phase_fct(180)*Qs      |
 |----------------------------------------------------|
