 |--------|------------|
 | ANGLE  |  PHASE FCT |
 |--------|------------|
     0.00   71.885    
     1.00   69.111    
     2.00   61.639    
     3.00   51.521    
     4.00   40.961    
     5.00   31.473    
     6.00   23.710    
     7.00   17.722    
     8.00   13.284    
     9.00   10.087    
    10.00   7.8279    
    11.00   6.2470    
    12.00   5.1451    
    13.00   4.3761    
    14.00   3.8350    
    15.00   3.4486    
    16.00   3.1675    
    17.00   2.9578    
    18.00   2.7968    
    19.00   2.6693    
    20.00   2.5651    
    21.00   2.4775    
    22.00   2.4017    
    23.00   2.3345    
    24.00   2.2740    
    25.00   2.2183    
    26.00   2.1665    
    27.00   2.1178    
    28.00   2.0715    
    29.00   2.0272    
    30.00   1.9846    
    31.00   1.9433    
    32.00   1.9032    
    33.00   1.8642    
    34.00   1.8259    
    35.00   1.7884    
    36.00   1.7516    
    37.00   1.7154    
    38.00   1.6797    
    39.00   1.6446    
    40.00   1.6099    
    41.00   1.5756    
    42.00   1.5418    
    43.00   1.5084    
    44.00   1.4754    
    45.00   1.4428    
    46.00   1.4107    
    47.00   1.3789    
    48.00   1.3476    
    49.00   1.3168    
    50.00   1.2864    
    51.00   1.2564    
    52.00   1.2269    
    53.00   1.1979    
    54.00   1.1694    
    55.00   1.1414    
    56.00   1.1138    
    57.00   1.0868    
    58.00   1.0604    
    59.00   1.0344    
    60.00   1.0090    
    61.00  0.98419    
    62.00  0.95991    
    63.00  0.93619    
    64.00  0.91303    
    65.00  0.89045    
    66.00  0.86845    
    67.00  0.84701    
    68.00  0.82616    
    69.00  0.80589    
    70.00  0.78619    
    71.00  0.76708    
    72.00  0.74854    
    73.00  0.73058    
    74.00  0.71320    
    75.00  0.69638    
    76.00  0.68014    
    77.00  0.66445    
    78.00  0.64932    
    79.00  0.63474    
    80.00  0.62071    
    81.00  0.60722    
    82.00  0.59426    
    83.00  0.58182    
    84.00  0.56991    
    85.00  0.55850    
    86.00  0.54759    
    87.00  0.53717    
    88.00  0.52724    
    89.00  0.51778    
    90.00  0.50879    
    91.00  0.50025    
    92.00  0.49216    
    93.00  0.48450    
    94.00  0.47727    
    95.00  0.47045    
    96.00  0.46404    
    97.00  0.45802    
    98.00  0.45238    
    99.00  0.44712    
   100.00  0.44223    
   101.00  0.43769    
   102.00  0.43349    
   103.00  0.42962    
   104.00  0.42607    
   105.00  0.42284    
   106.00  0.41990    
   107.00  0.41726    
   108.00  0.41490    
   109.00  0.41281    
   110.00  0.41098    
   111.00  0.40940    
   112.00  0.40806    
   113.00  0.40696    
   114.00  0.40608    
   115.00  0.40541    
   116.00  0.40495    
   117.00  0.40468    
   118.00  0.40460    
   119.00  0.40469    
   120.00  0.40496    
   121.00  0.40538    
   122.00  0.40596    
   123.00  0.40668    
   124.00  0.40753    
   125.00  0.40852    
   126.00  0.40962    
   127.00  0.41084    
   128.00  0.41216    
   129.00  0.41358    
   130.00  0.41509    
   131.00  0.41668    
   132.00  0.41835    
   133.00  0.42009    
   134.00  0.42189    
   135.00  0.42375    
   136.00  0.42567    
   137.00  0.42762    
   138.00  0.42962    
   139.00  0.43165    
   140.00  0.43371    
   141.00  0.43579    
   142.00  0.43789    
   143.00  0.44000    
   144.00  0.44212    
   145.00  0.44425    
   146.00  0.44639    
   147.00  0.44852    
   148.00  0.45064    
   149.00  0.45276    
   150.00  0.45487    
   151.00  0.45697    
   152.00  0.45906    
   153.00  0.46112    
   154.00  0.46316    
   155.00  0.46516    
   156.00  0.46713    
   157.00  0.46903    
   158.00  0.47088    
   159.00  0.47264    
   160.00  0.47432    
   161.00  0.47588    
   162.00  0.47734    
   163.00  0.47866    
   164.00  0.47987    
   165.00  0.48097    
   166.00  0.48196    
   167.00  0.48287    
   168.00  0.48372    
   169.00  0.48455    
   170.00  0.48536    
   171.00  0.48619    
   172.00  0.48704    
   173.00  0.48790    
   174.00  0.48876    
   175.00  0.48960    
   176.00  0.49037    
   177.00  0.49103    
   178.00  0.49154    
   179.00  0.49186    
   180.00  0.49197    
 |--------|------------|
0.430000     micron = Wavelength
0.434013     = Extinction efficiency (Q)
0.190872     = Scattering efficiency (Qs)
0.243141     = Absorption efficiency (Qa)
 58.0810     = Lidar ratio
0.730511E-02 micron^2 = <b> = Average surface area per particle
0.317051E-02 microns^2 = Extinction cross section (C)
0.139434E-02 microns^2 = Scattering cross section (Cs)
0.177617E-02 microns^2 = Absorption cross section (Ca)
 |----------------------------------------------------|
 | COMMENTAIRES:                                      |
 |----------------------------------------------------|
 |   -Cross section / <b> should = efficiency         |
 |    is independant of the normalisation of dN/dx    |
 |   -The integral of the phase fct / 4 pi over all   |
 |    directions (solid angle) = 1.                   |
 |   -The volume coefficient (k) is equal to C * N    |
 |      = cross section * Number density              |
 |      typical units: [um^2]*[particles/cm^3] =      |
 |      [10^-3 km-1]                                  |
 |      N = M/(d*4/3*pi*r^3) where d is the density   |
 |      of particle, M is the mass per unit volume    |
 |      and 4/3*pi*r^3 is the average volume  of a    |
 |      particle.                                     |
 |      typical units:  M -> [ug/m^3], d -> [g/cm^3]  |
 |                      r -> [um]                     |
 |      Lidar ratio= 4 pi Qe / phase_fct(180)*Qs      |
 |----------------------------------------------------|
