 |--------|------------|
 | ANGLE  |  PHASE FCT |
 |--------|------------|
     0.00   139.71    
     1.00   128.20    
     2.00   99.594    
     3.00   66.858    
     4.00   40.622    
     5.00   24.098    
     6.00   15.031    
     7.00   10.150    
     8.00   7.4469    
     9.00   5.9613    
    10.00   5.1280    
    11.00   4.6053    
    12.00   4.2514    
    13.00   4.0069    
    14.00   3.8220    
    15.00   3.6691    
    16.00   3.5427    
    17.00   3.4362    
    18.00   3.3405    
    19.00   3.2533    
    20.00   3.1744    
    21.00   3.1008    
    22.00   3.0304    
    23.00   2.9633    
    24.00   2.8991    
    25.00   2.8363    
    26.00   2.7748    
    27.00   2.7147    
    28.00   2.6556    
    29.00   2.5969    
    30.00   2.5390    
    31.00   2.4818    
    32.00   2.4250    
    33.00   2.3686    
    34.00   2.3128    
    35.00   2.2575    
    36.00   2.2026    
    37.00   2.1482    
    38.00   2.0944    
    39.00   2.0412    
    40.00   1.9885    
    41.00   1.9364    
    42.00   1.8851    
    43.00   1.8344    
    44.00   1.7844    
    45.00   1.7352    
    46.00   1.6867    
    47.00   1.6391    
    48.00   1.5923    
    49.00   1.5464    
    50.00   1.5013    
    51.00   1.4571    
    52.00   1.4139    
    53.00   1.3716    
    54.00   1.3302    
    55.00   1.2898    
    56.00   1.2504    
    57.00   1.2119    
    58.00   1.1744    
    59.00   1.1379    
    60.00   1.1024    
    61.00   1.0678    
    62.00   1.0342    
    63.00   1.0016    
    64.00  0.96991    
    65.00  0.93921    
    66.00  0.90945    
    67.00  0.88063    
    68.00  0.85274    
    69.00  0.82576    
    70.00  0.79968    
    71.00  0.77449    
    72.00  0.75017    
    73.00  0.72670    
    74.00  0.70408    
    75.00  0.68228    
    76.00  0.66129    
    77.00  0.64109    
    78.00  0.62166    
    79.00  0.60299    
    80.00  0.58505    
    81.00  0.56783    
    82.00  0.55132    
    83.00  0.53548    
    84.00  0.52031    
    85.00  0.50578    
    86.00  0.49188    
    87.00  0.47859    
    88.00  0.46588    
    89.00  0.45376    
    90.00  0.44219    
    91.00  0.43115    
    92.00  0.42064    
    93.00  0.41063    
    94.00  0.40111    
    95.00  0.39206    
    96.00  0.38347    
    97.00  0.37532    
    98.00  0.36759    
    99.00  0.36027    
   100.00  0.35335    
   101.00  0.34681    
   102.00  0.34064    
   103.00  0.33483    
   104.00  0.32935    
   105.00  0.32420    
   106.00  0.31937    
   107.00  0.31484    
   108.00  0.31060    
   109.00  0.30664    
   110.00  0.30296    
   111.00  0.29953    
   112.00  0.29635    
   113.00  0.29341    
   114.00  0.29069    
   115.00  0.28820    
   116.00  0.28591    
   117.00  0.28383    
   118.00  0.28194    
   119.00  0.28023    
   120.00  0.27870    
   121.00  0.27733    
   122.00  0.27613    
   123.00  0.27508    
   124.00  0.27417    
   125.00  0.27340    
   126.00  0.27276    
   127.00  0.27225    
   128.00  0.27186    
   129.00  0.27158    
   130.00  0.27140    
   131.00  0.27133    
   132.00  0.27135    
   133.00  0.27146    
   134.00  0.27165    
   135.00  0.27193    
   136.00  0.27227    
   137.00  0.27269    
   138.00  0.27317    
   139.00  0.27370    
   140.00  0.27430    
   141.00  0.27494    
   142.00  0.27562    
   143.00  0.27635    
   144.00  0.27712    
   145.00  0.27791    
   146.00  0.27874    
   147.00  0.27959    
   148.00  0.28046    
   149.00  0.28134    
   150.00  0.28224    
   151.00  0.28315    
   152.00  0.28407    
   153.00  0.28499    
   154.00  0.28591    
   155.00  0.28682    
   156.00  0.28773    
   157.00  0.28864    
   158.00  0.28953    
   159.00  0.29040    
   160.00  0.29126    
   161.00  0.29209    
   162.00  0.29290    
   163.00  0.29367    
   164.00  0.29441    
   165.00  0.29511    
   166.00  0.29577    
   167.00  0.29639    
   168.00  0.29696    
   169.00  0.29750    
   170.00  0.29799    
   171.00  0.29845    
   172.00  0.29887    
   173.00  0.29926    
   174.00  0.29961    
   175.00  0.29992    
   176.00  0.30019    
   177.00  0.30041    
   178.00  0.30057    
   179.00  0.30067    
   180.00  0.30071    
 |--------|------------|
0.520000     micron = Wavelength
0.720219     = Extinction efficiency (Q)
0.376884     = Scattering efficiency (Qs)
0.343335     = Absorption efficiency (Qa)
 79.8593     = Lidar ratio
0.199685E-01 micron^2 = <b> = Average surface area per particle
0.143817E-01 microns^2 = Extinction cross section (C)
0.752582E-02 microns^2 = Scattering cross section (Cs)
0.685588E-02 microns^2 = Absorption cross section (Ca)
 |----------------------------------------------------|
 | COMMENTAIRES:                                      |
 |----------------------------------------------------|
 |   -Cross section / <b> should = efficiency         |
 |    is independant of the normalisation of dN/dx    |
 |   -The integral of the phase fct / 4 pi over all   |
 |    directions (solid angle) = 1.                   |
 |   -The volume coefficient (k) is equal to C * N    |
 |      = cross section * Number density              |
 |      typical units: [um^2]*[particles/cm^3] =      |
 |      [10^-3 km-1]                                  |
 |      N = M/(d*4/3*pi*r^3) where d is the density   |
 |      of particle, M is the mass per unit volume    |
 |      and 4/3*pi*r^3 is the average volume  of a    |
 |      particle.                                     |
 |      typical units:  M -> [ug/m^3], d -> [g/cm^3]  |
 |                      r -> [um]                     |
 |      Lidar ratio= 4 pi Qe / phase_fct(180)*Qs      |
 |----------------------------------------------------|
