 |--------|------------|
 | ANGLE  |  PHASE FCT |
 |--------|------------|
     0.00   51.598    
     1.00   51.115    
     2.00   49.706    
     3.00   47.486    
     4.00   44.622    
     5.00   41.303    
     6.00   37.719    
     7.00   34.041    
     8.00   30.409    
     9.00   26.931    
    10.00   23.678    
    11.00   20.696    
    12.00   18.007    
    13.00   15.616    
    14.00   13.512    
    15.00   11.679    
    16.00   10.094    
    17.00   8.7319    
    18.00   7.5675    
    19.00   6.5762    
    20.00   5.7346    
    21.00   5.0218    
    22.00   4.4185    
    23.00   3.9081    
    24.00   3.4761    
    25.00   3.1099    
    26.00   2.7990    
    27.00   2.5341    
    28.00   2.3076    
    29.00   2.1132    
    30.00   1.9455    
    31.00   1.8000    
    32.00   1.6731    
    33.00   1.5617    
    34.00   1.4634    
    35.00   1.3759    
    36.00   1.2977    
    37.00   1.2273    
    38.00   1.1635    
    39.00   1.1054    
    40.00   1.0522    
    41.00   1.0033    
    42.00  0.95801    
    43.00  0.91600    
    44.00  0.87686    
    45.00  0.84028    
    46.00  0.80598    
    47.00  0.77373    
    48.00  0.74337    
    49.00  0.71471    
    50.00  0.68761    
    51.00  0.66195    
    52.00  0.63762    
    53.00  0.61454    
    54.00  0.59260    
    55.00  0.57175    
    56.00  0.55190    
    57.00  0.53301    
    58.00  0.51501    
    59.00  0.49786    
    60.00  0.48151    
    61.00  0.46592    
    62.00  0.45105    
    63.00  0.43686    
    64.00  0.42332    
    65.00  0.41039    
    66.00  0.39806    
    67.00  0.38629    
    68.00  0.37506    
    69.00  0.36434    
    70.00  0.35411    
    71.00  0.34436    
    72.00  0.33505    
    73.00  0.32617    
    74.00  0.31770    
    75.00  0.30964    
    76.00  0.30195    
    77.00  0.29463    
    78.00  0.28766    
    79.00  0.28104    
    80.00  0.27474    
    81.00  0.26875    
    82.00  0.26306    
    83.00  0.25767    
    84.00  0.25256    
    85.00  0.24772    
    86.00  0.24314    
    87.00  0.23881    
    88.00  0.23474    
    89.00  0.23089    
    90.00  0.22728    
    91.00  0.22388    
    92.00  0.22070    
    93.00  0.21773    
    94.00  0.21495    
    95.00  0.21237    
    96.00  0.20998    
    97.00  0.20776    
    98.00  0.20573    
    99.00  0.20386    
   100.00  0.20215    
   101.00  0.20061    
   102.00  0.19921    
   103.00  0.19797    
   104.00  0.19687    
   105.00  0.19591    
   106.00  0.19508    
   107.00  0.19438    
   108.00  0.19381    
   109.00  0.19336    
   110.00  0.19303    
   111.00  0.19281    
   112.00  0.19270    
   113.00  0.19270    
   114.00  0.19280    
   115.00  0.19300    
   116.00  0.19329    
   117.00  0.19368    
   118.00  0.19416    
   119.00  0.19472    
   120.00  0.19537    
   121.00  0.19611    
   122.00  0.19692    
   123.00  0.19781    
   124.00  0.19878    
   125.00  0.19983    
   126.00  0.20095    
   127.00  0.20214    
   128.00  0.20340    
   129.00  0.20474    
   130.00  0.20615    
   131.00  0.20764    
   132.00  0.20919    
   133.00  0.21083    
   134.00  0.21254    
   135.00  0.21432    
   136.00  0.21618    
   137.00  0.21813    
   138.00  0.22015    
   139.00  0.22225    
   140.00  0.22443    
   141.00  0.22668    
   142.00  0.22900    
   143.00  0.23139    
   144.00  0.23383    
   145.00  0.23631    
   146.00  0.23881    
   147.00  0.24131    
   148.00  0.24378    
   149.00  0.24619    
   150.00  0.24850    
   151.00  0.25067    
   152.00  0.25265    
   153.00  0.25438    
   154.00  0.25583    
   155.00  0.25695    
   156.00  0.25769    
   157.00  0.25802    
   158.00  0.25794    
   159.00  0.25743    
   160.00  0.25654    
   161.00  0.25529    
   162.00  0.25378    
   163.00  0.25210    
   164.00  0.25037    
   165.00  0.24872    
   166.00  0.24729    
   167.00  0.24621    
   168.00  0.24562    
   169.00  0.24558    
   170.00  0.24615    
   171.00  0.24734    
   172.00  0.24908    
   173.00  0.25127    
   174.00  0.25377    
   175.00  0.25637    
   176.00  0.25889    
   177.00  0.26112    
   178.00  0.26286    
   179.00  0.26396    
   180.00  0.26434    
 |--------|------------|
0.760000     micron = Wavelength
0.182981     = Extinction efficiency (Q)
0.666659E-01 = Scattering efficiency (Qs)
0.116315     = Absorption efficiency (Qa)
 130.479     = Lidar ratio
0.513788E-02 micron^2 = <b> = Average surface area per particle
0.940134E-03 microns^2 = Extinction cross section (C)
0.342522E-03 microns^2 = Scattering cross section (Cs)
0.597613E-03 microns^2 = Absorption cross section (Ca)
 |----------------------------------------------------|
 | COMMENTAIRES:                                      |
 |----------------------------------------------------|
 |   -Cross section / <b> should = efficiency         |
 |    is independant of the normalisation of dN/dx    |
 |   -The integral of the phase fct / 4 pi over all   |
 |    directions (solid angle) = 1.                   |
 |   -The volume coefficient (k) is equal to C * N    |
 |      = cross section * Number density              |
 |      typical units: [um^2]*[particles/cm^3] =      |
 |      [10^-3 km-1]                                  |
 |      N = M/(d*4/3*pi*r^3) where d is the density   |
 |      of particle, M is the mass per unit volume    |
 |      and 4/3*pi*r^3 is the average volume  of a    |
 |      particle.                                     |
 |      typical units:  M -> [ug/m^3], d -> [g/cm^3]  |
 |                      r -> [um]                     |
 |      Lidar ratio= 4 pi Qe / phase_fct(180)*Qs      |
 |----------------------------------------------------|
