 |--------|------------|
 | ANGLE  |  PHASE FCT |
 |--------|------------|
     0.00   60.760    
     1.00   59.996    
     2.00   57.791    
     3.00   54.377    
     4.00   50.081    
     5.00   45.254    
     6.00   40.221    
     7.00   35.247    
     8.00   30.528    
     9.00   26.187    
    10.00   22.295    
    11.00   18.874    
    12.00   15.917    
    13.00   13.394    
    14.00   11.265    
    15.00   9.4848    
    16.00   8.0062    
    17.00   6.7849    
    18.00   5.7807    
    19.00   4.9570    
    20.00   4.2827    
    21.00   3.7309    
    22.00   3.2791    
    23.00   2.9085    
    24.00   2.6035    
    25.00   2.3516    
    26.00   2.1424    
    27.00   1.9675    
    28.00   1.8203    
    29.00   1.6953    
    30.00   1.5883    
    31.00   1.4958    
    32.00   1.4150    
    33.00   1.3439    
    34.00   1.2805    
    35.00   1.2236    
    36.00   1.1720    
    37.00   1.1249    
    38.00   1.0816    
    39.00   1.0414    
    40.00   1.0040    
    41.00  0.96902    
    42.00  0.93610    
    43.00  0.90502    
    44.00  0.87560    
    45.00  0.84766    
    46.00  0.82107    
    47.00  0.79571    
    48.00  0.77149    
    49.00  0.74832    
    50.00  0.72614    
    51.00  0.70487    
    52.00  0.68447    
    53.00  0.66489    
    54.00  0.64608    
    55.00  0.62801    
    56.00  0.61063    
    57.00  0.59392    
    58.00  0.57785    
    59.00  0.56239    
    60.00  0.54752    
    61.00  0.53321    
    62.00  0.51945    
    63.00  0.50621    
    64.00  0.49347    
    65.00  0.48122    
    66.00  0.46944    
    67.00  0.45812    
    68.00  0.44724    
    69.00  0.43679    
    70.00  0.42676    
    71.00  0.41712    
    72.00  0.40789    
    73.00  0.39903    
    74.00  0.39055    
    75.00  0.38242    
    76.00  0.37465    
    77.00  0.36723    
    78.00  0.36013    
    79.00  0.35337    
    80.00  0.34692    
    81.00  0.34078    
    82.00  0.33495    
    83.00  0.32941    
    84.00  0.32416    
    85.00  0.31919    
    86.00  0.31450    
    87.00  0.31008    
    88.00  0.30591    
    89.00  0.30201    
    90.00  0.29835    
    91.00  0.29494    
    92.00  0.29177    
    93.00  0.28883    
    94.00  0.28612    
    95.00  0.28363    
    96.00  0.28135    
    97.00  0.27928    
    98.00  0.27742    
    99.00  0.27576    
   100.00  0.27429    
   101.00  0.27301    
   102.00  0.27191    
   103.00  0.27099    
   104.00  0.27024    
   105.00  0.26966    
   106.00  0.26925    
   107.00  0.26899    
   108.00  0.26888    
   109.00  0.26892    
   110.00  0.26910    
   111.00  0.26943    
   112.00  0.26988    
   113.00  0.27046    
   114.00  0.27117    
   115.00  0.27199    
   116.00  0.27293    
   117.00  0.27398    
   118.00  0.27514    
   119.00  0.27639    
   120.00  0.27775    
   121.00  0.27919    
   122.00  0.28073    
   123.00  0.28235    
   124.00  0.28406    
   125.00  0.28584    
   126.00  0.28770    
   127.00  0.28963    
   128.00  0.29163    
   129.00  0.29370    
   130.00  0.29584    
   131.00  0.29804    
   132.00  0.30030    
   133.00  0.30263    
   134.00  0.30503    
   135.00  0.30748    
   136.00  0.31000    
   137.00  0.31258    
   138.00  0.31524    
   139.00  0.31795    
   140.00  0.32074    
   141.00  0.32359    
   142.00  0.32650    
   143.00  0.32948    
   144.00  0.33252    
   145.00  0.33561    
   146.00  0.33874    
   147.00  0.34189    
   148.00  0.34505    
   149.00  0.34818    
   150.00  0.35127    
   151.00  0.35426    
   152.00  0.35711    
   153.00  0.35979    
   154.00  0.36223    
   155.00  0.36439    
   156.00  0.36621    
   157.00  0.36767    
   158.00  0.36872    
   159.00  0.36937    
   160.00  0.36960    
   161.00  0.36947    
   162.00  0.36903    
   163.00  0.36835    
   164.00  0.36757    
   165.00  0.36679    
   166.00  0.36616    
   167.00  0.36582    
   168.00  0.36589    
   169.00  0.36646    
   170.00  0.36759    
   171.00  0.36929    
   172.00  0.37151    
   173.00  0.37415    
   174.00  0.37705    
   175.00  0.38003    
   176.00  0.38287    
   177.00  0.38535    
   178.00  0.38729    
   179.00  0.38852    
   180.00  0.38894    
 |--------|------------|
0.540000     micron = Wavelength
0.204174     = Extinction efficiency (Q)
0.705360E-01 = Scattering efficiency (Qs)
0.133638     = Absorption efficiency (Qa)
 93.5221     = Lidar ratio
0.352421E-02 micron^2 = <b> = Average surface area per particle
0.719552E-03 microns^2 = Extinction cross section (C)
0.248584E-03 microns^2 = Scattering cross section (Cs)
0.470968E-03 microns^2 = Absorption cross section (Ca)
 |----------------------------------------------------|
 | COMMENTAIRES:                                      |
 |----------------------------------------------------|
 |   -Cross section / <b> should = efficiency         |
 |    is independant of the normalisation of dN/dx    |
 |   -The integral of the phase fct / 4 pi over all   |
 |    directions (solid angle) = 1.                   |
 |   -The volume coefficient (k) is equal to C * N    |
 |      = cross section * Number density              |
 |      typical units: [um^2]*[particles/cm^3] =      |
 |      [10^-3 km-1]                                  |
 |      N = M/(d*4/3*pi*r^3) where d is the density   |
 |      of particle, M is the mass per unit volume    |
 |      and 4/3*pi*r^3 is the average volume  of a    |
 |      particle.                                     |
 |      typical units:  M -> [ug/m^3], d -> [g/cm^3]  |
 |                      r -> [um]                     |
 |      Lidar ratio= 4 pi Qe / phase_fct(180)*Qs      |
 |----------------------------------------------------|
