 |--------|------------|
 | ANGLE  |  PHASE FCT |
 |--------|------------|
     0.00   74.537    
     1.00   73.226    
     2.00   69.493    
     3.00   63.873    
     4.00   57.066    
     5.00   49.763    
     6.00   42.528    
     7.00   35.759    
     8.00   29.684    
     9.00   24.407    
    10.00   19.937    
    11.00   16.224    
    12.00   13.189    
    13.00   10.737    
    14.00   8.7760    
    15.00   7.2181    
    16.00   5.9872    
    17.00   5.0177    
    18.00   4.2553    
    19.00   3.6556    
    20.00   3.1830    
    21.00   2.8092    
    22.00   2.5120    
    23.00   2.2740    
    24.00   2.0817    
    25.00   1.9247    
    26.00   1.7950    
    27.00   1.6865    
    28.00   1.5946    
    29.00   1.5155    
    30.00   1.4466    
    31.00   1.3858    
    32.00   1.3314    
    33.00   1.2822    
    34.00   1.2372    
    35.00   1.1958    
    36.00   1.1573    
    37.00   1.1213    
    38.00   1.0875    
    39.00   1.0555    
    40.00   1.0251    
    41.00  0.99615    
    42.00  0.96851    
    43.00  0.94206    
    44.00  0.91666    
    45.00  0.89226    
    46.00  0.86876    
    47.00  0.84612    
    48.00  0.82428    
    49.00  0.80319    
    50.00  0.78280    
    51.00  0.76309    
    52.00  0.74401    
    53.00  0.72556    
    54.00  0.70770    
    55.00  0.69039    
    56.00  0.67364    
    57.00  0.65740    
    58.00  0.64168    
    59.00  0.62646    
    60.00  0.61171    
    61.00  0.59744    
    62.00  0.58362    
    63.00  0.57024    
    64.00  0.55730    
    65.00  0.54479    
    66.00  0.53269    
    67.00  0.52100    
    68.00  0.50971    
    69.00  0.49881    
    70.00  0.48831    
    71.00  0.47818    
    72.00  0.46842    
    73.00  0.45904    
    74.00  0.45001    
    75.00  0.44134    
    76.00  0.43302    
    77.00  0.42504    
    78.00  0.41740    
    79.00  0.41010    
    80.00  0.40312    
    81.00  0.39647    
    82.00  0.39013    
    83.00  0.38411    
    84.00  0.37839    
    85.00  0.37297    
    86.00  0.36785    
    87.00  0.36303    
    88.00  0.35848    
    89.00  0.35422    
    90.00  0.35023    
    91.00  0.34651    
    92.00  0.34306    
    93.00  0.33987    
    94.00  0.33693    
    95.00  0.33423    
    96.00  0.33178    
    97.00  0.32957    
    98.00  0.32759    
    99.00  0.32583    
   100.00  0.32429    
   101.00  0.32297    
   102.00  0.32186    
   103.00  0.32095    
   104.00  0.32023    
   105.00  0.31971    
   106.00  0.31938    
   107.00  0.31922    
   108.00  0.31924    
   109.00  0.31942    
   110.00  0.31977    
   111.00  0.32028    
   112.00  0.32094    
   113.00  0.32174    
   114.00  0.32268    
   115.00  0.32376    
   116.00  0.32496    
   117.00  0.32629    
   118.00  0.32774    
   119.00  0.32930    
   120.00  0.33096    
   121.00  0.33273    
   122.00  0.33459    
   123.00  0.33654    
   124.00  0.33858    
   125.00  0.34069    
   126.00  0.34289    
   127.00  0.34515    
   128.00  0.34749    
   129.00  0.34988    
   130.00  0.35233    
   131.00  0.35484    
   132.00  0.35739    
   133.00  0.36000    
   134.00  0.36265    
   135.00  0.36534    
   136.00  0.36807    
   137.00  0.37085    
   138.00  0.37366    
   139.00  0.37650    
   140.00  0.37939    
   141.00  0.38232    
   142.00  0.38528    
   143.00  0.38829    
   144.00  0.39134    
   145.00  0.39443    
   146.00  0.39756    
   147.00  0.40073    
   148.00  0.40394    
   149.00  0.40716    
   150.00  0.41040    
   151.00  0.41362    
   152.00  0.41680    
   153.00  0.41992    
   154.00  0.42293    
   155.00  0.42578    
   156.00  0.42842    
   157.00  0.43081    
   158.00  0.43289    
   159.00  0.43462    
   160.00  0.43597    
   161.00  0.43693    
   162.00  0.43750    
   163.00  0.43773    
   164.00  0.43767    
   165.00  0.43742    
   166.00  0.43709    
   167.00  0.43681    
   168.00  0.43672    
   169.00  0.43692    
   170.00  0.43753    
   171.00  0.43858    
   172.00  0.44008    
   173.00  0.44198    
   174.00  0.44417    
   175.00  0.44651    
   176.00  0.44880    
   177.00  0.45085    
   178.00  0.45246    
   179.00  0.45350    
   180.00  0.45386    
 |--------|------------|
0.670000     micron = Wavelength
0.234216     = Extinction efficiency (Q)
0.819643E-01 = Scattering efficiency (Qs)
0.152252     = Absorption efficiency (Qa)
 79.1184     = Lidar ratio
0.730526E-02 micron^2 = <b> = Average surface area per particle
0.171101E-02 microns^2 = Extinction cross section (C)
0.598771E-03 microns^2 = Scattering cross section (Cs)
0.111224E-02 microns^2 = Absorption cross section (Ca)
 |----------------------------------------------------|
 | COMMENTAIRES:                                      |
 |----------------------------------------------------|
 |   -Cross section / <b> should = efficiency         |
 |    is independant of the normalisation of dN/dx    |
 |   -The integral of the phase fct / 4 pi over all   |
 |    directions (solid angle) = 1.                   |
 |   -The volume coefficient (k) is equal to C * N    |
 |      = cross section * Number density              |
 |      typical units: [um^2]*[particles/cm^3] =      |
 |      [10^-3 km-1]                                  |
 |      N = M/(d*4/3*pi*r^3) where d is the density   |
 |      of particle, M is the mass per unit volume    |
 |      and 4/3*pi*r^3 is the average volume  of a    |
 |      particle.                                     |
 |      typical units:  M -> [ug/m^3], d -> [g/cm^3]  |
 |                      r -> [um]                     |
 |      Lidar ratio= 4 pi Qe / phase_fct(180)*Qs      |
 |----------------------------------------------------|
