 |--------|------------|
 | ANGLE  |  PHASE FCT |
 |--------|------------|
     0.00   62.367    
     1.00   61.569    
     2.00   59.267    
     3.00   55.707    
     4.00   51.235    
     5.00   46.222    
     6.00   41.007    
     7.00   35.867    
     8.00   31.003    
     9.00   26.542    
    10.00   22.552    
    11.00   19.055    
    12.00   16.039    
    13.00   13.474    
    14.00   11.315    
    15.00   9.5135    
    16.00   8.0210    
    17.00   6.7910    
    18.00   5.7816    
    19.00   4.9554    
    20.00   4.2801    
    21.00   3.7283    
    22.00   3.2771    
    23.00   2.9073    
    24.00   2.6032    
    25.00   2.3521    
    26.00   2.1435    
    27.00   1.9691    
    28.00   1.8222    
    29.00   1.6974    
    30.00   1.5904    
    31.00   1.4977    
    32.00   1.4167    
    33.00   1.3452    
    34.00   1.2814    
    35.00   1.2240    
    36.00   1.1719    
    37.00   1.1242    
    38.00   1.0804    
    39.00   1.0397    
    40.00   1.0018    
    41.00  0.96625    
    42.00  0.93283    
    43.00  0.90130    
    44.00  0.87143    
    45.00  0.84308    
    46.00  0.81611    
    47.00  0.79040    
    48.00  0.76586    
    49.00  0.74240    
    50.00  0.71995    
    51.00  0.69844    
    52.00  0.67782    
    53.00  0.65805    
    54.00  0.63907    
    55.00  0.62084    
    56.00  0.60334    
    57.00  0.58652    
    58.00  0.57035    
    59.00  0.55481    
    60.00  0.53988    
    61.00  0.52552    
    62.00  0.51172    
    63.00  0.49845    
    64.00  0.48570    
    65.00  0.47344    
    66.00  0.46167    
    67.00  0.45035    
    68.00  0.43949    
    69.00  0.42906    
    70.00  0.41905    
    71.00  0.40945    
    72.00  0.40025    
    73.00  0.39143    
    74.00  0.38298    
    75.00  0.37490    
    76.00  0.36718    
    77.00  0.35979    
    78.00  0.35275    
    79.00  0.34603    
    80.00  0.33962    
    81.00  0.33353    
    82.00  0.32774    
    83.00  0.32225    
    84.00  0.31704    
    85.00  0.31211    
    86.00  0.30746    
    87.00  0.30308    
    88.00  0.29895    
    89.00  0.29508    
    90.00  0.29146    
    91.00  0.28808    
    92.00  0.28493    
    93.00  0.28201    
    94.00  0.27932    
    95.00  0.27685    
    96.00  0.27459    
    97.00  0.27253    
    98.00  0.27068    
    99.00  0.26902    
   100.00  0.26756    
   101.00  0.26628    
   102.00  0.26518    
   103.00  0.26425    
   104.00  0.26350    
   105.00  0.26291    
   106.00  0.26248    
   107.00  0.26220    
   108.00  0.26208    
   109.00  0.26209    
   110.00  0.26225    
   111.00  0.26255    
   112.00  0.26297    
   113.00  0.26352    
   114.00  0.26419    
   115.00  0.26498    
   116.00  0.26588    
   117.00  0.26689    
   118.00  0.26800    
   119.00  0.26921    
   120.00  0.27051    
   121.00  0.27191    
   122.00  0.27339    
   123.00  0.27496    
   124.00  0.27661    
   125.00  0.27833    
   126.00  0.28013    
   127.00  0.28200    
   128.00  0.28393    
   129.00  0.28594    
   130.00  0.28800    
   131.00  0.29013    
   132.00  0.29232    
   133.00  0.29458    
   134.00  0.29689    
   135.00  0.29927    
   136.00  0.30170    
   137.00  0.30420    
   138.00  0.30676    
   139.00  0.30939    
   140.00  0.31208    
   141.00  0.31484    
   142.00  0.31766    
   143.00  0.32056    
   144.00  0.32351    
   145.00  0.32651    
   146.00  0.32957    
   147.00  0.33265    
   148.00  0.33576    
   149.00  0.33885    
   150.00  0.34191    
   151.00  0.34489    
   152.00  0.34775    
   153.00  0.35046    
   154.00  0.35294    
   155.00  0.35516    
   156.00  0.35706    
   157.00  0.35859    
   158.00  0.35971    
   159.00  0.36041    
   160.00  0.36069    
   161.00  0.36056    
   162.00  0.36008    
   163.00  0.35932    
   164.00  0.35840    
   165.00  0.35744    
   166.00  0.35658    
   167.00  0.35596    
   168.00  0.35571    
   169.00  0.35595    
   170.00  0.35675    
   171.00  0.35812    
   172.00  0.36004    
   173.00  0.36240    
   174.00  0.36508    
   175.00  0.36786    
   176.00  0.37056    
   177.00  0.37294    
   178.00  0.37480    
   179.00  0.37599    
   180.00  0.37640    
 |--------|------------|
0.650000     micron = Wavelength
0.204078     = Extinction efficiency (Q)
0.708354E-01 = Scattering efficiency (Qs)
0.133243     = Absorption efficiency (Qa)
 96.1852     = Lidar ratio
0.513788E-02 micron^2 = <b> = Average surface area per particle
0.104853E-02 microns^2 = Extinction cross section (C)
0.363944E-03 microns^2 = Scattering cross section (Cs)
0.684587E-03 microns^2 = Absorption cross section (Ca)
 |----------------------------------------------------|
 | COMMENTAIRES:                                      |
 |----------------------------------------------------|
 |   -Cross section / <b> should = efficiency         |
 |    is independant of the normalisation of dN/dx    |
 |   -The integral of the phase fct / 4 pi over all   |
 |    directions (solid angle) = 1.                   |
 |   -The volume coefficient (k) is equal to C * N    |
 |      = cross section * Number density              |
 |      typical units: [um^2]*[particles/cm^3] =      |
 |      [10^-3 km-1]                                  |
 |      N = M/(d*4/3*pi*r^3) where d is the density   |
 |      of particle, M is the mass per unit volume    |
 |      and 4/3*pi*r^3 is the average volume  of a    |
 |      particle.                                     |
 |      typical units:  M -> [ug/m^3], d -> [g/cm^3]  |
 |                      r -> [um]                     |
 |      Lidar ratio= 4 pi Qe / phase_fct(180)*Qs      |
 |----------------------------------------------------|
