 |--------|------------|
 | ANGLE  |  PHASE FCT |
 |--------|------------|
     0.00   46.026    
     1.00   45.640    
     2.00   44.511    
     3.00   42.723    
     4.00   40.397    
     5.00   37.675    
     6.00   34.702    
     7.00   31.613    
     8.00   28.523    
     9.00   25.522    
    10.00   22.676    
    11.00   20.031    
    12.00   17.612    
    13.00   15.430    
    14.00   13.483    
    15.00   11.763    
    16.00   10.256    
    17.00   8.9440    
    18.00   7.8079    
    19.00   6.8285    
    20.00   5.9873    
    21.00   5.2666    
    22.00   4.6503    
    23.00   4.1237    
    24.00   3.6739    
    25.00   3.2896    
    26.00   2.9607    
    27.00   2.6789    
    28.00   2.4367    
    29.00   2.2280    
    30.00   2.0474    
    31.00   1.8906    
    32.00   1.7537    
    33.00   1.6335    
    34.00   1.5276    
    35.00   1.4337    
    36.00   1.3499    
    37.00   1.2747    
    38.00   1.2068    
    39.00   1.1453    
    40.00   1.0892    
    41.00   1.0378    
    42.00  0.99039    
    43.00  0.94659    
    44.00  0.90591    
    45.00  0.86800    
    46.00  0.83256    
    47.00  0.79933    
    48.00  0.76809    
    49.00  0.73865    
    50.00  0.71085    
    51.00  0.68456    
    52.00  0.65965    
    53.00  0.63602    
    54.00  0.61358    
    55.00  0.59225    
    56.00  0.57195    
    57.00  0.55263    
    58.00  0.53421    
    59.00  0.51665    
    60.00  0.49991    
    61.00  0.48393    
    62.00  0.46869    
    63.00  0.45413    
    64.00  0.44023    
    65.00  0.42695    
    66.00  0.41428    
    67.00  0.40217    
    68.00  0.39061    
    69.00  0.37957    
    70.00  0.36902    
    71.00  0.35896    
    72.00  0.34934    
    73.00  0.34017    
    74.00  0.33142    
    75.00  0.32307    
    76.00  0.31511    
    77.00  0.30753    
    78.00  0.30030    
    79.00  0.29342    
    80.00  0.28688    
    81.00  0.28065    
    82.00  0.27474    
    83.00  0.26912    
    84.00  0.26380    
    85.00  0.25875    
    86.00  0.25397    
    87.00  0.24946    
    88.00  0.24519    
    89.00  0.24117    
    90.00  0.23738    
    91.00  0.23382    
    92.00  0.23048    
    93.00  0.22736    
    94.00  0.22444    
    95.00  0.22172    
    96.00  0.21919    
    97.00  0.21685    
    98.00  0.21469    
    99.00  0.21271    
   100.00  0.21090    
   101.00  0.20925    
   102.00  0.20776    
   103.00  0.20642    
   104.00  0.20524    
   105.00  0.20420    
   106.00  0.20330    
   107.00  0.20253    
   108.00  0.20190    
   109.00  0.20139    
   110.00  0.20101    
   111.00  0.20075    
   112.00  0.20060    
   113.00  0.20056    
   114.00  0.20064    
   115.00  0.20081    
   116.00  0.20109    
   117.00  0.20147    
   118.00  0.20195    
   119.00  0.20252    
   120.00  0.20318    
   121.00  0.20394    
   122.00  0.20478    
   123.00  0.20571    
   124.00  0.20672    
   125.00  0.20782    
   126.00  0.20900    
   127.00  0.21026    
   128.00  0.21161    
   129.00  0.21304    
   130.00  0.21455    
   131.00  0.21614    
   132.00  0.21783    
   133.00  0.21959    
   134.00  0.22144    
   135.00  0.22338    
   136.00  0.22540    
   137.00  0.22751    
   138.00  0.22970    
   139.00  0.23198    
   140.00  0.23432    
   141.00  0.23674    
   142.00  0.23921    
   143.00  0.24173    
   144.00  0.24428    
   145.00  0.24684    
   146.00  0.24939    
   147.00  0.25189    
   148.00  0.25431    
   149.00  0.25661    
   150.00  0.25876    
   151.00  0.26070    
   152.00  0.26239    
   153.00  0.26379    
   154.00  0.26486    
   155.00  0.26556    
   156.00  0.26587    
   157.00  0.26578    
   158.00  0.26531    
   159.00  0.26447    
   160.00  0.26332    
   161.00  0.26194    
   162.00  0.26042    
   163.00  0.25887    
   164.00  0.25742    
   165.00  0.25620    
   166.00  0.25535    
   167.00  0.25497    
   168.00  0.25515    
   169.00  0.25596    
   170.00  0.25740    
   171.00  0.25943    
   172.00  0.26198    
   173.00  0.26492    
   174.00  0.26806    
   175.00  0.27121    
   176.00  0.27417    
   177.00  0.27673    
   178.00  0.27870    
   179.00  0.27995    
   180.00  0.28038    
 |--------|------------|
0.570000     micron = Wavelength
0.176653     = Extinction efficiency (Q)
0.642731E-01 = Scattering efficiency (Qs)
0.112380     = Absorption efficiency (Qa)
 123.186     = Lidar ratio
0.272778E-02 micron^2 = <b> = Average surface area per particle
0.481871E-03 microns^2 = Extinction cross section (C)
0.175323E-03 microns^2 = Scattering cross section (Cs)
0.306548E-03 microns^2 = Absorption cross section (Ca)
 |----------------------------------------------------|
 | COMMENTAIRES:                                      |
 |----------------------------------------------------|
 |   -Cross section / <b> should = efficiency         |
 |    is independant of the normalisation of dN/dx    |
 |   -The integral of the phase fct / 4 pi over all   |
 |    directions (solid angle) = 1.                   |
 |   -The volume coefficient (k) is equal to C * N    |
 |      = cross section * Number density              |
 |      typical units: [um^2]*[particles/cm^3] =      |
 |      [10^-3 km-1]                                  |
 |      N = M/(d*4/3*pi*r^3) where d is the density   |
 |      of particle, M is the mass per unit volume    |
 |      and 4/3*pi*r^3 is the average volume  of a    |
 |      particle.                                     |
 |      typical units:  M -> [ug/m^3], d -> [g/cm^3]  |
 |                      r -> [um]                     |
 |      Lidar ratio= 4 pi Qe / phase_fct(180)*Qs      |
 |----------------------------------------------------|
