 |--------|------------|
 | ANGLE  |  PHASE FCT |
 |--------|------------|
     0.00   71.090    
     1.00   69.699    
     2.00   65.763    
     3.00   59.900    
     4.00   52.905    
     5.00   45.535    
     6.00   38.375    
     7.00   31.811    
     8.00   26.043    
     9.00   21.136    
    10.00   17.064    
    11.00   13.751    
    12.00   11.095    
    13.00   8.9899    
    14.00   7.3367    
    15.00   6.0461    
    16.00   5.0427    
    17.00   4.2640    
    18.00   3.6598    
    19.00   3.1899    
    20.00   2.8230    
    21.00   2.5348    
    22.00   2.3066    
    23.00   2.1241    
    24.00   1.9763    
    25.00   1.8552    
    26.00   1.7543    
    27.00   1.6691    
    28.00   1.5960    
    29.00   1.5322    
    30.00   1.4759    
    31.00   1.4254    
    32.00   1.3796    
    33.00   1.3375    
    34.00   1.2986    
    35.00   1.2623    
    36.00   1.2281    
    37.00   1.1958    
    38.00   1.1651    
    39.00   1.1358    
    40.00   1.1077    
    41.00   1.0807    
    42.00   1.0546    
    43.00   1.0295    
    44.00   1.0052    
    45.00  0.98161    
    46.00  0.95877    
    47.00  0.93659    
    48.00  0.91502    
    49.00  0.89405    
    50.00  0.87364    
    51.00  0.85377    
    52.00  0.83441    
    53.00  0.81556    
    54.00  0.79719    
    55.00  0.77930    
    56.00  0.76187    
    57.00  0.74489    
    58.00  0.72835    
    59.00  0.71225    
    60.00  0.69657    
    61.00  0.68132    
    62.00  0.66649    
    63.00  0.65206    
    64.00  0.63805    
    65.00  0.62444    
    66.00  0.61123    
    67.00  0.59841    
    68.00  0.58599    
    69.00  0.57396    
    70.00  0.56232    
    71.00  0.55106    
    72.00  0.54018    
    73.00  0.52968    
    74.00  0.51955    
    75.00  0.50980    
    76.00  0.50041    
    77.00  0.49139    
    78.00  0.48273    
    79.00  0.47444    
    80.00  0.46649    
    81.00  0.45890    
    82.00  0.45165    
    83.00  0.44474    
    84.00  0.43817    
    85.00  0.43194    
    86.00  0.42603    
    87.00  0.42045    
    88.00  0.41518    
    89.00  0.41024    
    90.00  0.40560    
    91.00  0.40126    
    92.00  0.39723    
    93.00  0.39349    
    94.00  0.39003    
    95.00  0.38686    
    96.00  0.38396    
    97.00  0.38134    
    98.00  0.37898    
    99.00  0.37688    
   100.00  0.37503    
   101.00  0.37342    
   102.00  0.37205    
   103.00  0.37092    
   104.00  0.37002    
   105.00  0.36933    
   106.00  0.36886    
   107.00  0.36859    
   108.00  0.36853    
   109.00  0.36866    
   110.00  0.36898    
   111.00  0.36948    
   112.00  0.37015    
   113.00  0.37099    
   114.00  0.37199    
   115.00  0.37314    
   116.00  0.37444    
   117.00  0.37589    
   118.00  0.37746    
   119.00  0.37917    
   120.00  0.38100    
   121.00  0.38294    
   122.00  0.38499    
   123.00  0.38714    
   124.00  0.38940    
   125.00  0.39174    
   126.00  0.39416    
   127.00  0.39667    
   128.00  0.39925    
   129.00  0.40189    
   130.00  0.40460    
   131.00  0.40737    
   132.00  0.41019    
   133.00  0.41306    
   134.00  0.41597    
   135.00  0.41892    
   136.00  0.42191    
   137.00  0.42494    
   138.00  0.42799    
   139.00  0.43108    
   140.00  0.43420    
   141.00  0.43734    
   142.00  0.44051    
   143.00  0.44371    
   144.00  0.44694    
   145.00  0.45019    
   146.00  0.45347    
   147.00  0.45676    
   148.00  0.46008    
   149.00  0.46340    
   150.00  0.46671    
   151.00  0.47001    
   152.00  0.47326    
   153.00  0.47645    
   154.00  0.47953    
   155.00  0.48247    
   156.00  0.48525    
   157.00  0.48780    
   158.00  0.49010    
   159.00  0.49211    
   160.00  0.49381    
   161.00  0.49519    
   162.00  0.49626    
   163.00  0.49705    
   164.00  0.49762    
   165.00  0.49803    
   166.00  0.49839    
   167.00  0.49878    
   168.00  0.49931    
   169.00  0.50007    
   170.00  0.50112    
   171.00  0.50250    
   172.00  0.50421    
   173.00  0.50618    
   174.00  0.50834    
   175.00  0.51056    
   176.00  0.51267    
   177.00  0.51453    
   178.00  0.51598    
   179.00  0.51691    
   180.00  0.51722    
 |--------|------------|
0.520000     micron = Wavelength
0.256720     = Extinction efficiency (Q)
0.916004E-01 = Scattering efficiency (Qs)
0.165120     = Absorption efficiency (Qa)
 68.0915     = Lidar ratio
0.513786E-02 micron^2 = <b> = Average surface area per particle
0.131899E-02 microns^2 = Extinction cross section (C)
0.470630E-03 microns^2 = Scattering cross section (Cs)
0.848362E-03 microns^2 = Absorption cross section (Ca)
 |----------------------------------------------------|
 | COMMENTAIRES:                                      |
 |----------------------------------------------------|
 |   -Cross section / <b> should = efficiency         |
 |    is independant of the normalisation of dN/dx    |
 |   -The integral of the phase fct / 4 pi over all   |
 |    directions (solid angle) = 1.                   |
 |   -The volume coefficient (k) is equal to C * N    |
 |      = cross section * Number density              |
 |      typical units: [um^2]*[particles/cm^3] =      |
 |      [10^-3 km-1]                                  |
 |      N = M/(d*4/3*pi*r^3) where d is the density   |
 |      of particle, M is the mass per unit volume    |
 |      and 4/3*pi*r^3 is the average volume  of a    |
 |      particle.                                     |
 |      typical units:  M -> [ug/m^3], d -> [g/cm^3]  |
 |                      r -> [um]                     |
 |      Lidar ratio= 4 pi Qe / phase_fct(180)*Qs      |
 |----------------------------------------------------|
