 |--------|------------|
 | ANGLE  |  PHASE FCT |
 |--------|------------|
     0.00   75.915    
     1.00   73.559    
     2.00   67.094    
     3.00   58.017    
     4.00   48.038    
     5.00   38.499    
     6.00   30.157    
     7.00   23.285    
     8.00   17.857    
     9.00   13.701    
    10.00   10.589    
    11.00   8.2923    
    12.00   6.6149    
    13.00   5.3966    
    14.00   4.5126    
    15.00   3.8692    
    16.00   3.3978    
    17.00   3.0487    
    18.00   2.7862    
    19.00   2.5853    
    20.00   2.4282    
    21.00   2.3025    
    22.00   2.1995    
    23.00   2.1131    
    24.00   2.0388    
    25.00   1.9738    
    26.00   1.9158    
    27.00   1.8632    
    28.00   1.8148    
    29.00   1.7699    
    30.00   1.7277    
    31.00   1.6878    
    32.00   1.6499    
    33.00   1.6134    
    34.00   1.5784    
    35.00   1.5446    
    36.00   1.5118    
    37.00   1.4799    
    38.00   1.4487    
    39.00   1.4183    
    40.00   1.3886    
    41.00   1.3594    
    42.00   1.3308    
    43.00   1.3027    
    44.00   1.2751    
    45.00   1.2480    
    46.00   1.2213    
    47.00   1.1950    
    48.00   1.1692    
    49.00   1.1438    
    50.00   1.1188    
    51.00   1.0942    
    52.00   1.0700    
    53.00   1.0463    
    54.00   1.0230    
    55.00   1.0000    
    56.00  0.97757    
    57.00  0.95553    
    58.00  0.93392    
    59.00  0.91275    
    60.00  0.89203    
    61.00  0.87176    
    62.00  0.85194    
    63.00  0.83258    
    64.00  0.81368    
    65.00  0.79525    
    66.00  0.77727    
    67.00  0.75979    
    68.00  0.74276    
    69.00  0.72621    
    70.00  0.71013    
    71.00  0.69452    
    72.00  0.67939    
    73.00  0.66473    
    74.00  0.65055    
    75.00  0.63684    
    76.00  0.62359    
    77.00  0.61082    
    78.00  0.59850    
    79.00  0.58665    
    80.00  0.57526    
    81.00  0.56432    
    82.00  0.55382    
    83.00  0.54377    
    84.00  0.53416    
    85.00  0.52498    
    86.00  0.51624    
    87.00  0.50790    
    88.00  0.49999    
    89.00  0.49248    
    90.00  0.48538    
    91.00  0.47866    
    92.00  0.47234    
    93.00  0.46639    
    94.00  0.46082    
    95.00  0.45560    
    96.00  0.45075    
    97.00  0.44624    
    98.00  0.44206    
    99.00  0.43822    
   100.00  0.43470    
   101.00  0.43149    
   102.00  0.42859    
   103.00  0.42598    
   104.00  0.42366    
   105.00  0.42162    
   106.00  0.41985    
   107.00  0.41834    
   108.00  0.41708    
   109.00  0.41606    
   110.00  0.41528    
   111.00  0.41473    
   112.00  0.41439    
   113.00  0.41426    
   114.00  0.41434    
   115.00  0.41460    
   116.00  0.41505    
   117.00  0.41567    
   118.00  0.41646    
   119.00  0.41741    
   120.00  0.41852    
   121.00  0.41976    
   122.00  0.42114    
   123.00  0.42265    
   124.00  0.42427    
   125.00  0.42601    
   126.00  0.42786    
   127.00  0.42980    
   128.00  0.43183    
   129.00  0.43395    
   130.00  0.43615    
   131.00  0.43841    
   132.00  0.44074    
   133.00  0.44312    
   134.00  0.44556    
   135.00  0.44804    
   136.00  0.45056    
   137.00  0.45312    
   138.00  0.45570    
   139.00  0.45830    
   140.00  0.46093    
   141.00  0.46356    
   142.00  0.46621    
   143.00  0.46887    
   144.00  0.47153    
   145.00  0.47419    
   146.00  0.47685    
   147.00  0.47950    
   148.00  0.48215    
   149.00  0.48480    
   150.00  0.48743    
   151.00  0.49006    
   152.00  0.49266    
   153.00  0.49524    
   154.00  0.49778    
   155.00  0.50027    
   156.00  0.50269    
   157.00  0.50503    
   158.00  0.50726    
   159.00  0.50936    
   160.00  0.51130    
   161.00  0.51308    
   162.00  0.51467    
   163.00  0.51608    
   164.00  0.51731    
   165.00  0.51838    
   166.00  0.51933    
   167.00  0.52019    
   168.00  0.52101    
   169.00  0.52184    
   170.00  0.52273    
   171.00  0.52370    
   172.00  0.52477    
   173.00  0.52592    
   174.00  0.52714    
   175.00  0.52835    
   176.00  0.52949    
   177.00  0.53049    
   178.00  0.53127    
   179.00  0.53177    
   180.00  0.53194    
 |--------|------------|
0.490000     micron = Wavelength
0.352359     = Extinction efficiency (Q)
0.141946     = Scattering efficiency (Qs)
0.210413     = Absorption efficiency (Qa)
 58.6418     = Lidar ratio
0.730524E-02 micron^2 = <b> = Average surface area per particle
0.257407E-02 microns^2 = Extinction cross section (C)
0.103695E-02 microns^2 = Scattering cross section (Cs)
0.153712E-02 microns^2 = Absorption cross section (Ca)
 |----------------------------------------------------|
 | COMMENTAIRES:                                      |
 |----------------------------------------------------|
 |   -Cross section / <b> should = efficiency         |
 |    is independant of the normalisation of dN/dx    |
 |   -The integral of the phase fct / 4 pi over all   |
 |    directions (solid angle) = 1.                   |
 |   -The volume coefficient (k) is equal to C * N    |
 |      = cross section * Number density              |
 |      typical units: [um^2]*[particles/cm^3] =      |
 |      [10^-3 km-1]                                  |
 |      N = M/(d*4/3*pi*r^3) where d is the density   |
 |      of particle, M is the mass per unit volume    |
 |      and 4/3*pi*r^3 is the average volume  of a    |
 |      particle.                                     |
 |      typical units:  M -> [ug/m^3], d -> [g/cm^3]  |
 |                      r -> [um]                     |
 |      Lidar ratio= 4 pi Qe / phase_fct(180)*Qs      |
 |----------------------------------------------------|
