 |--------|------------|
 | ANGLE  |  PHASE FCT |
 |--------|------------|
     0.00   46.304    
     1.00   45.926    
     2.00   44.821    
     3.00   43.067    
     4.00   40.781    
     5.00   38.101    
     6.00   35.167    
     7.00   32.110    
     8.00   29.041    
     9.00   26.053    
    10.00   23.210    
    11.00   20.558    
    12.00   18.125    
    13.00   15.921    
    14.00   13.949    
    15.00   12.201    
    16.00   10.663    
    17.00   9.3194    
    18.00   8.1516    
    19.00   7.1414    
    20.00   6.2704    
    21.00   5.5214    
    22.00   4.8786    
    23.00   4.3274    
    24.00   3.8549    
    25.00   3.4497    
    26.00   3.1019    
    27.00   2.8029    
    28.00   2.5452    
    29.00   2.3224    
    30.00   2.1292    
    31.00   1.9610    
    32.00   1.8139    
    33.00   1.6846    
    34.00   1.5705    
    35.00   1.4692    
    36.00   1.3788    
    37.00   1.2978    
    38.00   1.2247    
    39.00   1.1585    
    40.00   1.0981    
    41.00   1.0429    
    42.00  0.99218    
    43.00  0.94535    
    44.00  0.90197    
    45.00  0.86164    
    46.00  0.82403    
    47.00  0.78887    
    48.00  0.75590    
    49.00  0.72492    
    50.00  0.69576    
    51.00  0.66825    
    52.00  0.64227    
    53.00  0.61769    
    54.00  0.59441    
    55.00  0.57235    
    56.00  0.55141    
    57.00  0.53152    
    58.00  0.51263    
    59.00  0.49466    
    60.00  0.47757    
    61.00  0.46130    
    62.00  0.44581    
    63.00  0.43106    
    64.00  0.41700    
    65.00  0.40361    
    66.00  0.39085    
    67.00  0.37869    
    68.00  0.36709    
    69.00  0.35604    
    70.00  0.34551    
    71.00  0.33547    
    72.00  0.32590    
    73.00  0.31678    
    74.00  0.30810    
    75.00  0.29982    
    76.00  0.29194    
    77.00  0.28444    
    78.00  0.27730    
    79.00  0.27051    
    80.00  0.26406    
    81.00  0.25792    
    82.00  0.25209    
    83.00  0.24656    
    84.00  0.24132    
    85.00  0.23635    
    86.00  0.23164    
    87.00  0.22719    
    88.00  0.22298    
    89.00  0.21901    
    90.00  0.21527    
    91.00  0.21175    
    92.00  0.20843    
    93.00  0.20533    
    94.00  0.20242    
    95.00  0.19970    
    96.00  0.19717    
    97.00  0.19481    
    98.00  0.19262    
    99.00  0.19060    
   100.00  0.18874    
   101.00  0.18704    
   102.00  0.18549    
   103.00  0.18408    
   104.00  0.18281    
   105.00  0.18167    
   106.00  0.18067    
   107.00  0.17979    
   108.00  0.17904    
   109.00  0.17840    
   110.00  0.17788    
   111.00  0.17747    
   112.00  0.17717    
   113.00  0.17697    
   114.00  0.17687    
   115.00  0.17687    
   116.00  0.17697    
   117.00  0.17716    
   118.00  0.17744    
   119.00  0.17780    
   120.00  0.17825    
   121.00  0.17879    
   122.00  0.17941    
   123.00  0.18011    
   124.00  0.18089    
   125.00  0.18175    
   126.00  0.18269    
   127.00  0.18371    
   128.00  0.18480    
   129.00  0.18598    
   130.00  0.18723    
   131.00  0.18857    
   132.00  0.18998    
   133.00  0.19148    
   134.00  0.19306    
   135.00  0.19473    
   136.00  0.19647    
   137.00  0.19830    
   138.00  0.20021    
   139.00  0.20220    
   140.00  0.20427    
   141.00  0.20640    
   142.00  0.20860    
   143.00  0.21084    
   144.00  0.21313    
   145.00  0.21542    
   146.00  0.21771    
   147.00  0.21997    
   148.00  0.22216    
   149.00  0.22424    
   150.00  0.22619    
   151.00  0.22794    
   152.00  0.22946    
   153.00  0.23071    
   154.00  0.23163    
   155.00  0.23220    
   156.00  0.23239    
   157.00  0.23218    
   158.00  0.23157    
   159.00  0.23059    
   160.00  0.22927    
   161.00  0.22768    
   162.00  0.22592    
   163.00  0.22408    
   164.00  0.22229    
   165.00  0.22068    
   166.00  0.21939    
   167.00  0.21852    
   168.00  0.21818    
   169.00  0.21843    
   170.00  0.21929    
   171.00  0.22076    
   172.00  0.22275    
   173.00  0.22516    
   174.00  0.22781    
   175.00  0.23054    
   176.00  0.23313    
   177.00  0.23539    
   178.00  0.23715    
   179.00  0.23826    
   180.00  0.23865    
 |--------|------------|
0.670000     micron = Wavelength
0.176146     = Extinction efficiency (Q)
0.658392E-01 = Scattering efficiency (Qs)
0.110307     = Absorption efficiency (Qa)
 140.877     = Lidar ratio
0.352421E-02 micron^2 = <b> = Average surface area per particle
0.620776E-03 microns^2 = Extinction cross section (C)
0.232032E-03 microns^2 = Scattering cross section (Cs)
0.388744E-03 microns^2 = Absorption cross section (Ca)
 |----------------------------------------------------|
 | COMMENTAIRES:                                      |
 |----------------------------------------------------|
 |   -Cross section / <b> should = efficiency         |
 |    is independant of the normalisation of dN/dx    |
 |   -The integral of the phase fct / 4 pi over all   |
 |    directions (solid angle) = 1.                   |
 |   -The volume coefficient (k) is equal to C * N    |
 |      = cross section * Number density              |
 |      typical units: [um^2]*[particles/cm^3] =      |
 |      [10^-3 km-1]                                  |
 |      N = M/(d*4/3*pi*r^3) where d is the density   |
 |      of particle, M is the mass per unit volume    |
 |      and 4/3*pi*r^3 is the average volume  of a    |
 |      particle.                                     |
 |      typical units:  M -> [ug/m^3], d -> [g/cm^3]  |
 |                      r -> [um]                     |
 |      Lidar ratio= 4 pi Qe / phase_fct(180)*Qs      |
 |----------------------------------------------------|
