 |--------|------------|
 | ANGLE  |  PHASE FCT |
 |--------|------------|
     0.00   53.953    
     1.00   53.402    
     2.00   51.801    
     3.00   49.290    
     4.00   46.071    
     5.00   42.372    
     6.00   38.414    
     7.00   34.392    
     8.00   30.464    
     9.00   26.742    
    10.00   23.302    
    11.00   20.184    
    12.00   17.406    
    13.00   14.962    
    14.00   12.838    
    15.00   11.008    
    16.00   9.4442    
    17.00   8.1152    
    18.00   6.9918    
    19.00   6.0457    
    20.00   5.2511    
    21.00   4.5850    
    22.00   4.0269    
    23.00   3.5593    
    24.00   3.1671    
    25.00   2.8375    
    26.00   2.5598    
    27.00   2.3249    
    28.00   2.1253    
    29.00   1.9548    
    30.00   1.8084    
    31.00   1.6818    
    32.00   1.5716    
    33.00   1.4750    
    34.00   1.3896    
    35.00   1.3136    
    36.00   1.2455    
    37.00   1.1840    
    38.00   1.1281    
    39.00   1.0770    
    40.00   1.0300    
    41.00  0.98649    
    42.00  0.94609    
    43.00  0.90841    
    44.00  0.87311    
    45.00  0.83995    
    46.00  0.80871    
    47.00  0.77920    
    48.00  0.75127    
    49.00  0.72478    
    50.00  0.69962    
    51.00  0.67570    
    52.00  0.65291    
    53.00  0.63121    
    54.00  0.61051    
    55.00  0.59074    
    56.00  0.57186    
    57.00  0.55382    
    58.00  0.53658    
    59.00  0.52009    
    60.00  0.50432    
    61.00  0.48924    
    62.00  0.47480    
    63.00  0.46098    
    64.00  0.44776    
    65.00  0.43510    
    66.00  0.42299    
    67.00  0.41141    
    68.00  0.40032    
    69.00  0.38971    
    70.00  0.37957    
    71.00  0.36987    
    72.00  0.36060    
    73.00  0.35174    
    74.00  0.34328    
    75.00  0.33520    
    76.00  0.32750    
    77.00  0.32014    
    78.00  0.31314    
    79.00  0.30647    
    80.00  0.30012    
    81.00  0.29408    
    82.00  0.28835    
    83.00  0.28291    
    84.00  0.27775    
    85.00  0.27286    
    86.00  0.26824    
    87.00  0.26388    
    88.00  0.25977    
    89.00  0.25591    
    90.00  0.25228    
    91.00  0.24888    
    92.00  0.24569    
    93.00  0.24273    
    94.00  0.23997    
    95.00  0.23742    
    96.00  0.23506    
    97.00  0.23290    
    98.00  0.23092    
    99.00  0.22911    
   100.00  0.22749    
   101.00  0.22603    
   102.00  0.22473    
   103.00  0.22360    
   104.00  0.22262    
   105.00  0.22178    
   106.00  0.22109    
   107.00  0.22055    
   108.00  0.22013    
   109.00  0.21985    
   110.00  0.21969    
   111.00  0.21966    
   112.00  0.21974    
   113.00  0.21994    
   114.00  0.22025    
   115.00  0.22066    
   116.00  0.22118    
   117.00  0.22180    
   118.00  0.22251    
   119.00  0.22332    
   120.00  0.22422    
   121.00  0.22520    
   122.00  0.22627    
   123.00  0.22742    
   124.00  0.22865    
   125.00  0.22996    
   126.00  0.23134    
   127.00  0.23280    
   128.00  0.23434    
   129.00  0.23595    
   130.00  0.23763    
   131.00  0.23939    
   132.00  0.24122    
   133.00  0.24312    
   134.00  0.24510    
   135.00  0.24715    
   136.00  0.24929    
   137.00  0.25150    
   138.00  0.25379    
   139.00  0.25617    
   140.00  0.25862    
   141.00  0.26114    
   142.00  0.26374    
   143.00  0.26641    
   144.00  0.26913    
   145.00  0.27190    
   146.00  0.27470    
   147.00  0.27749    
   148.00  0.28027    
   149.00  0.28299    
   150.00  0.28561    
   151.00  0.28809    
   152.00  0.29038    
   153.00  0.29244    
   154.00  0.29421    
   155.00  0.29564    
   156.00  0.29669    
   157.00  0.29733    
   158.00  0.29754    
   159.00  0.29733    
   160.00  0.29673    
   161.00  0.29577    
   162.00  0.29455    
   163.00  0.29317    
   164.00  0.29175    
   165.00  0.29042    
   166.00  0.28934    
   167.00  0.28863    
   168.00  0.28842    
   169.00  0.28880    
   170.00  0.28981    
   171.00  0.29145    
   172.00  0.29364    
   173.00  0.29628    
   174.00  0.29920    
   175.00  0.30221    
   176.00  0.30507    
   177.00  0.30758    
   178.00  0.30954    
   179.00  0.31078    
   180.00  0.31120    
 |--------|------------|
0.600000     micron = Wavelength
0.187867     = Extinction efficiency (Q)
0.669394E-01 = Scattering efficiency (Qs)
0.120928     = Absorption efficiency (Qa)
 113.327     = Lidar ratio
0.352421E-02 micron^2 = <b> = Average surface area per particle
0.662083E-03 microns^2 = Extinction cross section (C)
0.235908E-03 microns^2 = Scattering cross section (Cs)
0.426175E-03 microns^2 = Absorption cross section (Ca)
 |----------------------------------------------------|
 | COMMENTAIRES:                                      |
 |----------------------------------------------------|
 |   -Cross section / <b> should = efficiency         |
 |    is independant of the normalisation of dN/dx    |
 |   -The integral of the phase fct / 4 pi over all   |
 |    directions (solid angle) = 1.                   |
 |   -The volume coefficient (k) is equal to C * N    |
 |      = cross section * Number density              |
 |      typical units: [um^2]*[particles/cm^3] =      |
 |      [10^-3 km-1]                                  |
 |      N = M/(d*4/3*pi*r^3) where d is the density   |
 |      of particle, M is the mass per unit volume    |
 |      and 4/3*pi*r^3 is the average volume  of a    |
 |      particle.                                     |
 |      typical units:  M -> [ug/m^3], d -> [g/cm^3]  |
 |                      r -> [um]                     |
 |      Lidar ratio= 4 pi Qe / phase_fct(180)*Qs      |
 |----------------------------------------------------|
