 |--------|------------|
 | ANGLE  |  PHASE FCT |
 |--------|------------|
     0.00   47.161    
     1.00   46.751    
     2.00   45.554    
     3.00   43.659    
     4.00   41.201    
     5.00   38.333    
     6.00   35.213    
     7.00   31.983    
     8.00   28.764    
     9.00   25.652    
    10.00   22.714    
    11.00   19.995    
    12.00   17.520    
    13.00   15.297    
    14.00   13.323    
    15.00   11.587    
    16.00   10.073    
    17.00   8.7601    
    18.00   7.6284    
    19.00   6.6569    
    20.00   5.8259    
    21.00   5.1169    
    22.00   4.5128    
    23.00   3.9987    
    24.00   3.5611    
    25.00   3.1883    
    26.00   2.8704    
    27.00   2.5987    
    28.00   2.3658    
    29.00   2.1656    
    30.00   1.9926    
    31.00   1.8425    
    32.00   1.7117    
    33.00   1.5970    
    34.00   1.4959    
    35.00   1.4062    
    36.00   1.3262    
    37.00   1.2543    
    38.00   1.1894    
    39.00   1.1305    
    40.00   1.0767    
    41.00   1.0272    
    42.00  0.98166    
    43.00  0.93944    
    44.00  0.90016    
    45.00  0.86350    
    46.00  0.82916    
    47.00  0.79691    
    48.00  0.76655    
    49.00  0.73790    
    50.00  0.71080    
    51.00  0.68513    
    52.00  0.66078    
    53.00  0.63766    
    54.00  0.61567    
    55.00  0.59474    
    56.00  0.57481    
    57.00  0.55581    
    58.00  0.53769    
    59.00  0.52039    
    60.00  0.50388    
    61.00  0.48812    
    62.00  0.47306    
    63.00  0.45867    
    64.00  0.44493    
    65.00  0.43179    
    66.00  0.41923    
    67.00  0.40724    
    68.00  0.39577    
    69.00  0.38481    
    70.00  0.37434    
    71.00  0.36434    
    72.00  0.35479    
    73.00  0.34567    
    74.00  0.33697    
    75.00  0.32866    
    76.00  0.32074    
    77.00  0.31319    
    78.00  0.30600    
    79.00  0.29915    
    80.00  0.29263    
    81.00  0.28643    
    82.00  0.28054    
    83.00  0.27494    
    84.00  0.26964    
    85.00  0.26461    
    86.00  0.25986    
    87.00  0.25536    
    88.00  0.25112    
    89.00  0.24712    
    90.00  0.24336    
    91.00  0.23983    
    92.00  0.23651    
    93.00  0.23342    
    94.00  0.23053    
    95.00  0.22784    
    96.00  0.22535    
    97.00  0.22304    
    98.00  0.22092    
    99.00  0.21898    
   100.00  0.21721    
   101.00  0.21561    
   102.00  0.21416    
   103.00  0.21288    
   104.00  0.21175    
   105.00  0.21076    
   106.00  0.20991    
   107.00  0.20921    
   108.00  0.20863    
   109.00  0.20819    
   110.00  0.20787    
   111.00  0.20767    
   112.00  0.20759    
   113.00  0.20762    
   114.00  0.20776    
   115.00  0.20801    
   116.00  0.20836    
   117.00  0.20881    
   118.00  0.20936    
   119.00  0.21001    
   120.00  0.21075    
   121.00  0.21157    
   122.00  0.21249    
   123.00  0.21349    
   124.00  0.21458    
   125.00  0.21575    
   126.00  0.21701    
   127.00  0.21834    
   128.00  0.21976    
   129.00  0.22126    
   130.00  0.22284    
   131.00  0.22451    
   132.00  0.22626    
   133.00  0.22809    
   134.00  0.23001    
   135.00  0.23201    
   136.00  0.23410    
   137.00  0.23627    
   138.00  0.23852    
   139.00  0.24086    
   140.00  0.24327    
   141.00  0.24575    
   142.00  0.24830    
   143.00  0.25089    
   144.00  0.25352    
   145.00  0.25616    
   146.00  0.25879    
   147.00  0.26138    
   148.00  0.26391    
   149.00  0.26632    
   150.00  0.26858    
   151.00  0.27065    
   152.00  0.27247    
   153.00  0.27401    
   154.00  0.27521    
   155.00  0.27605    
   156.00  0.27651    
   157.00  0.27656    
   158.00  0.27622    
   159.00  0.27550    
   160.00  0.27447    
   161.00  0.27319    
   162.00  0.27176    
   163.00  0.27028    
   164.00  0.26890    
   165.00  0.26773    
   166.00  0.26691    
   167.00  0.26656    
   168.00  0.26676    
   169.00  0.26759    
   170.00  0.26905    
   171.00  0.27111    
   172.00  0.27369    
   173.00  0.27665    
   174.00  0.27983    
   175.00  0.28302    
   176.00  0.28601    
   177.00  0.28860    
   178.00  0.29059    
   179.00  0.29185    
   180.00  0.29229    
 |--------|------------|
0.560000     micron = Wavelength
0.178667     = Extinction efficiency (Q)
0.644346E-01 = Scattering efficiency (Qs)
0.114232     = Absorption efficiency (Qa)
 119.214     = Lidar ratio
0.272778E-02 micron^2 = <b> = Average surface area per particle
0.487364E-03 microns^2 = Extinction cross section (C)
0.175764E-03 microns^2 = Scattering cross section (Cs)
0.311600E-03 microns^2 = Absorption cross section (Ca)
 |----------------------------------------------------|
 | COMMENTAIRES:                                      |
 |----------------------------------------------------|
 |   -Cross section / <b> should = efficiency         |
 |    is independant of the normalisation of dN/dx    |
 |   -The integral of the phase fct / 4 pi over all   |
 |    directions (solid angle) = 1.                   |
 |   -The volume coefficient (k) is equal to C * N    |
 |      = cross section * Number density              |
 |      typical units: [um^2]*[particles/cm^3] =      |
 |      [10^-3 km-1]                                  |
 |      N = M/(d*4/3*pi*r^3) where d is the density   |
 |      of particle, M is the mass per unit volume    |
 |      and 4/3*pi*r^3 is the average volume  of a    |
 |      particle.                                     |
 |      typical units:  M -> [ug/m^3], d -> [g/cm^3]  |
 |                      r -> [um]                     |
 |      Lidar ratio= 4 pi Qe / phase_fct(180)*Qs      |
 |----------------------------------------------------|
