 |--------|------------|
 | ANGLE  |  PHASE FCT |
 |--------|------------|
     0.00   29.672    
     1.00   29.528    
     2.00   29.105    
     3.00   28.420    
     4.00   27.502    
     5.00   26.387    
     6.00   25.115    
     7.00   23.728    
     8.00   22.267    
     9.00   20.767    
    10.00   19.261    
    11.00   17.778    
    12.00   16.338    
    13.00   14.959    
    14.00   13.652    
    15.00   12.427    
    16.00   11.287    
    17.00   10.235    
    18.00   9.2686    
    19.00   8.3870    
    20.00   7.5862    
    21.00   6.8616    
    22.00   6.2082    
    23.00   5.6206    
    24.00   5.0935    
    25.00   4.6215    
    26.00   4.1995    
    27.00   3.8226    
    28.00   3.4861    
    29.00   3.1857    
    30.00   2.9177    
    31.00   2.6783    
    32.00   2.4645    
    33.00   2.2732    
    34.00   2.1018    
    35.00   1.9482    
    36.00   1.8101    
    37.00   1.6858    
    38.00   1.5737    
    39.00   1.4723    
    40.00   1.3804    
    41.00   1.2969    
    42.00   1.2209    
    43.00   1.1514    
    44.00   1.0878    
    45.00   1.0294    
    46.00  0.97569    
    47.00  0.92611    
    48.00  0.88025    
    49.00  0.83773    
    50.00  0.79822    
    51.00  0.76142    
    52.00  0.72708    
    53.00  0.69498    
    54.00  0.66490    
    55.00  0.63669    
    56.00  0.61018    
    57.00  0.58522    
    58.00  0.56170    
    59.00  0.53951    
    60.00  0.51855    
    61.00  0.49872    
    62.00  0.47996    
    63.00  0.46219    
    64.00  0.44534    
    65.00  0.42935    
    66.00  0.41418    
    67.00  0.39976    
    68.00  0.38606    
    69.00  0.37304    
    70.00  0.36066    
    71.00  0.34888    
    72.00  0.33767    
    73.00  0.32699    
    74.00  0.31684    
    75.00  0.30716    
    76.00  0.29795    
    77.00  0.28918    
    78.00  0.28083    
    79.00  0.27287    
    80.00  0.26530    
    81.00  0.25809    
    82.00  0.25122    
    83.00  0.24469    
    84.00  0.23847    
    85.00  0.23256    
    86.00  0.22693    
    87.00  0.22158    
    88.00  0.21650    
    89.00  0.21168    
    90.00  0.20709    
    91.00  0.20275    
    92.00  0.19863    
    93.00  0.19472    
    94.00  0.19103    
    95.00  0.18753    
    96.00  0.18423    
    97.00  0.18112    
    98.00  0.17818    
    99.00  0.17542    
   100.00  0.17282    
   101.00  0.17039    
   102.00  0.16811    
   103.00  0.16598    
   104.00  0.16400    
   105.00  0.16216    
   106.00  0.16046    
   107.00  0.15889    
   108.00  0.15746    
   109.00  0.15615    
   110.00  0.15496    
   111.00  0.15390    
   112.00  0.15295    
   113.00  0.15212    
   114.00  0.15141    
   115.00  0.15080    
   116.00  0.15031    
   117.00  0.14992    
   118.00  0.14965    
   119.00  0.14948    
   120.00  0.14942    
   121.00  0.14946    
   122.00  0.14961    
   123.00  0.14986    
   124.00  0.15021    
   125.00  0.15067    
   126.00  0.15123    
   127.00  0.15189    
   128.00  0.15265    
   129.00  0.15351    
   130.00  0.15446    
   131.00  0.15550    
   132.00  0.15663    
   133.00  0.15784    
   134.00  0.15913    
   135.00  0.16048    
   136.00  0.16189    
   137.00  0.16334    
   138.00  0.16482    
   139.00  0.16632    
   140.00  0.16781    
   141.00  0.16927    
   142.00  0.17067    
   143.00  0.17200    
   144.00  0.17322    
   145.00  0.17431    
   146.00  0.17523    
   147.00  0.17595    
   148.00  0.17644    
   149.00  0.17668    
   150.00  0.17665    
   151.00  0.17633    
   152.00  0.17571    
   153.00  0.17480    
   154.00  0.17361    
   155.00  0.17215    
   156.00  0.17049    
   157.00  0.16865    
   158.00  0.16673    
   159.00  0.16478    
   160.00  0.16292    
   161.00  0.16122    
   162.00  0.15980    
   163.00  0.15876    
   164.00  0.15817    
   165.00  0.15814    
   166.00  0.15870    
   167.00  0.15989    
   168.00  0.16172    
   169.00  0.16414    
   170.00  0.16711    
   171.00  0.17052    
   172.00  0.17424    
   173.00  0.17811    
   174.00  0.18196    
   175.00  0.18562    
   176.00  0.18890    
   177.00  0.19165    
   178.00  0.19372    
   179.00  0.19501    
   180.00  0.19545    
 |--------|------------|
0.730000     micron = Wavelength
0.155046     = Extinction efficiency (Q)
0.654134E-01 = Scattering efficiency (Qs)
0.896325E-01 = Absorption efficiency (Qa)
 152.396     = Lidar ratio
0.259481E-02 micron^2 = <b> = Average surface area per particle
0.402315E-03 microns^2 = Extinction cross section (C)
0.169736E-03 microns^2 = Scattering cross section (Cs)
0.232580E-03 microns^2 = Absorption cross section (Ca)
 |----------------------------------------------------|
 | COMMENTAIRES:                                      |
 |----------------------------------------------------|
 |   -Cross section / <b> should = efficiency         |
 |    is independant of the normalisation of dN/dx    |
 |   -The integral of the phase fct / 4 pi over all   |
 |    directions (solid angle) = 1.                   |
 |   -The volume coefficient (k) is equal to C * N    |
 |      = cross section * Number density              |
 |      typical units: [um^2]*[particles/cm^3] =      |
 |      [10^-3 km-1]                                  |
 |      N = M/(d*4/3*pi*r^3) where d is the density   |
 |      of particle, M is the mass per unit volume    |
 |      and 4/3*pi*r^3 is the average volume  of a    |
 |      particle.                                     |
 |      typical units:  M -> [ug/m^3], d -> [g/cm^3]  |
 |                      r -> [um]                     |
 |      Lidar ratio= 4 pi Qe / phase_fct(180)*Qs      |
 |----------------------------------------------------|
