 |--------|------------|
 | ANGLE  |  PHASE FCT |
 |--------|------------|
     0.00   54.456    
     1.00   53.903    
     2.00   52.293    
     3.00   49.769    
     4.00   46.531    
     5.00   42.809    
     6.00   38.826    
     7.00   34.777    
     8.00   30.821    
     9.00   27.070    
    10.00   23.600    
    11.00   20.455    
    12.00   17.650    
    13.00   15.182    
    14.00   13.035    
    15.00   11.184    
    16.00   9.6007    
    17.00   8.2545    
    18.00   7.1154    
    19.00   6.1553    
    20.00   5.3482    
    21.00   4.6708    
    22.00   4.1027    
    23.00   3.6262    
    24.00   3.2261    
    25.00   2.8894    
    26.00   2.6054    
    27.00   2.3648    
    28.00   2.1601    
    29.00   1.9851    
    30.00   1.8346    
    31.00   1.7043    
    32.00   1.5908    
    33.00   1.4911    
    34.00   1.4030    
    35.00   1.3245    
    36.00   1.2542    
    37.00   1.1907    
    38.00   1.1329    
    39.00   1.0801    
    40.00   1.0316    
    41.00  0.98669    
    42.00  0.94504    
    43.00  0.90621    
    44.00  0.86988    
    45.00  0.83578    
    46.00  0.80369    
    47.00  0.77341    
    48.00  0.74479    
    49.00  0.71769    
    50.00  0.69197    
    51.00  0.66755    
    52.00  0.64432    
    53.00  0.62223    
    54.00  0.60118    
    55.00  0.58110    
    56.00  0.56196    
    57.00  0.54369    
    58.00  0.52625    
    59.00  0.50960    
    60.00  0.49369    
    61.00  0.47848    
    62.00  0.46395    
    63.00  0.45006    
    64.00  0.43678    
    65.00  0.42409    
    66.00  0.41195    
    67.00  0.40036    
    68.00  0.38927    
    69.00  0.37868    
    70.00  0.36855    
    71.00  0.35888    
    72.00  0.34964    
    73.00  0.34082    
    74.00  0.33241    
    75.00  0.32438    
    76.00  0.31672    
    77.00  0.30943    
    78.00  0.30248    
    79.00  0.29586    
    80.00  0.28957    
    81.00  0.28358    
    82.00  0.27791    
    83.00  0.27252    
    84.00  0.26741    
    85.00  0.26258    
    86.00  0.25801    
    87.00  0.25369    
    88.00  0.24963    
    89.00  0.24580    
    90.00  0.24220    
    91.00  0.23883    
    92.00  0.23568    
    93.00  0.23274    
    94.00  0.23001    
    95.00  0.22747    
    96.00  0.22512    
    97.00  0.22297    
    98.00  0.22099    
    99.00  0.21919    
   100.00  0.21756    
   101.00  0.21609    
   102.00  0.21478    
   103.00  0.21363    
   104.00  0.21263    
   105.00  0.21177    
   106.00  0.21105    
   107.00  0.21046    
   108.00  0.21001    
   109.00  0.20969    
   110.00  0.20948    
   111.00  0.20940    
   112.00  0.20943    
   113.00  0.20957    
   114.00  0.20982    
   115.00  0.21017    
   116.00  0.21062    
   117.00  0.21117    
   118.00  0.21181    
   119.00  0.21254    
   120.00  0.21335    
   121.00  0.21425    
   122.00  0.21524    
   123.00  0.21630    
   124.00  0.21744    
   125.00  0.21865    
   126.00  0.21994    
   127.00  0.22131    
   128.00  0.22274    
   129.00  0.22425    
   130.00  0.22582    
   131.00  0.22747    
   132.00  0.22919    
   133.00  0.23098    
   134.00  0.23285    
   135.00  0.23479    
   136.00  0.23680    
   137.00  0.23890    
   138.00  0.24107    
   139.00  0.24331    
   140.00  0.24564    
   141.00  0.24805    
   142.00  0.25052    
   143.00  0.25307    
   144.00  0.25567    
   145.00  0.25832    
   146.00  0.26101    
   147.00  0.26370    
   148.00  0.26638    
   149.00  0.26902    
   150.00  0.27157    
   151.00  0.27400    
   152.00  0.27625    
   153.00  0.27827    
   154.00  0.28003    
   155.00  0.28145    
   156.00  0.28250    
   157.00  0.28314    
   158.00  0.28336    
   159.00  0.28314    
   160.00  0.28251    
   161.00  0.28151    
   162.00  0.28020    
   163.00  0.27870    
   164.00  0.27712    
   165.00  0.27559    
   166.00  0.27426    
   167.00  0.27327    
   168.00  0.27275    
   169.00  0.27279    
   170.00  0.27345    
   171.00  0.27473    
   172.00  0.27658    
   173.00  0.27890    
   174.00  0.28153    
   175.00  0.28428    
   176.00  0.28694    
   177.00  0.28928    
   178.00  0.29111    
   179.00  0.29228    
   180.00  0.29268    
 |--------|------------|
0.730000     micron = Wavelength
0.187270     = Extinction efficiency (Q)
0.672327E-01 = Scattering efficiency (Qs)
0.120037     = Absorption efficiency (Qa)
 119.592     = Lidar ratio
0.513788E-02 micron^2 = <b> = Average surface area per particle
0.962169E-03 microns^2 = Extinction cross section (C)
0.345433E-03 microns^2 = Scattering cross section (Cs)
0.616736E-03 microns^2 = Absorption cross section (Ca)
 |----------------------------------------------------|
 | COMMENTAIRES:                                      |
 |----------------------------------------------------|
 |   -Cross section / <b> should = efficiency         |
 |    is independant of the normalisation of dN/dx    |
 |   -The integral of the phase fct / 4 pi over all   |
 |    directions (solid angle) = 1.                   |
 |   -The volume coefficient (k) is equal to C * N    |
 |      = cross section * Number density              |
 |      typical units: [um^2]*[particles/cm^3] =      |
 |      [10^-3 km-1]                                  |
 |      N = M/(d*4/3*pi*r^3) where d is the density   |
 |      of particle, M is the mass per unit volume    |
 |      and 4/3*pi*r^3 is the average volume  of a    |
 |      particle.                                     |
 |      typical units:  M -> [ug/m^3], d -> [g/cm^3]  |
 |                      r -> [um]                     |
 |      Lidar ratio= 4 pi Qe / phase_fct(180)*Qs      |
 |----------------------------------------------------|
