 |--------|------------|
 | ANGLE  |  PHASE FCT |
 |--------|------------|
     0.00   96.819    
     1.00   86.785    
     2.00   62.762    
     3.00   37.523    
     4.00   20.257    
     5.00   11.954    
     6.00   8.8151    
     7.00   7.4684    
     8.00   6.6831    
     9.00   6.2498    
    10.00   5.9996    
    11.00   5.7875    
    12.00   5.6034    
    13.00   5.4597    
    14.00   5.3300    
    15.00   5.2009    
    16.00   5.0807    
    17.00   4.9680    
    18.00   4.8545    
    19.00   4.7408    
    20.00   4.6301    
    21.00   4.5196    
    22.00   4.4077    
    23.00   4.2963    
    24.00   4.1855    
    25.00   4.0743    
    26.00   3.9628    
    27.00   3.8522    
    28.00   3.7421    
    29.00   3.6322    
    30.00   3.5232    
    31.00   3.4153    
    32.00   3.3084    
    33.00   3.2026    
    34.00   3.0984    
    35.00   2.9957    
    36.00   2.8946    
    37.00   2.7952    
    38.00   2.6979    
    39.00   2.6024    
    40.00   2.5090    
    41.00   2.4178    
    42.00   2.3288    
    43.00   2.2420    
    44.00   2.1575    
    45.00   2.0753    
    46.00   1.9955    
    47.00   1.9180    
    48.00   1.8428    
    49.00   1.7701    
    50.00   1.6997    
    51.00   1.6316    
    52.00   1.5658    
    53.00   1.5023    
    54.00   1.4411    
    55.00   1.3821    
    56.00   1.3253    
    57.00   1.2706    
    58.00   1.2181    
    59.00   1.1675    
    60.00   1.1190    
    61.00   1.0725    
    62.00   1.0278    
    63.00  0.98497    
    64.00  0.94393    
    65.00  0.90463    
    66.00  0.86702    
    67.00  0.83102    
    68.00  0.79660    
    69.00  0.76369    
    70.00  0.73225    
    71.00  0.70221    
    72.00  0.67352    
    73.00  0.64614    
    74.00  0.62001    
    75.00  0.59509    
    76.00  0.57133    
    77.00  0.54867    
    78.00  0.52706    
    79.00  0.50648    
    80.00  0.48687    
    81.00  0.46820    
    82.00  0.45041    
    83.00  0.43348    
    84.00  0.41736    
    85.00  0.40202    
    86.00  0.38741    
    87.00  0.37352    
    88.00  0.36031    
    89.00  0.34774    
    90.00  0.33579    
    91.00  0.32442    
    92.00  0.31362    
    93.00  0.30334    
    94.00  0.29358    
    95.00  0.28430    
    96.00  0.27548    
    97.00  0.26711    
    98.00  0.25915    
    99.00  0.25159    
   100.00  0.24441    
   101.00  0.23760    
   102.00  0.23113    
   103.00  0.22499    
   104.00  0.21917    
   105.00  0.21364    
   106.00  0.20841    
   107.00  0.20344    
   108.00  0.19874    
   109.00  0.19428    
   110.00  0.19007    
   111.00  0.18608    
   112.00  0.18231    
   113.00  0.17874    
   114.00  0.17538    
   115.00  0.17221    
   116.00  0.16921    
   117.00  0.16640    
   118.00  0.16375    
   119.00  0.16126    
   120.00  0.15892    
   121.00  0.15674    
   122.00  0.15469    
   123.00  0.15278    
   124.00  0.15101    
   125.00  0.14936    
   126.00  0.14783    
   127.00  0.14642    
   128.00  0.14512    
   129.00  0.14393    
   130.00  0.14285    
   131.00  0.14187    
   132.00  0.14098    
   133.00  0.14019    
   134.00  0.13949    
   135.00  0.13887    
   136.00  0.13834    
   137.00  0.13789    
   138.00  0.13752    
   139.00  0.13723    
   140.00  0.13700    
   141.00  0.13685    
   142.00  0.13676    
   143.00  0.13673    
   144.00  0.13676    
   145.00  0.13685    
   146.00  0.13700    
   147.00  0.13719    
   148.00  0.13744    
   149.00  0.13772    
   150.00  0.13805    
   151.00  0.13842    
   152.00  0.13883    
   153.00  0.13926    
   154.00  0.13973    
   155.00  0.14022    
   156.00  0.14073    
   157.00  0.14126    
   158.00  0.14180    
   159.00  0.14236    
   160.00  0.14292    
   161.00  0.14348    
   162.00  0.14405    
   163.00  0.14461    
   164.00  0.14516    
   165.00  0.14571    
   166.00  0.14623    
   167.00  0.14674    
   168.00  0.14722    
   169.00  0.14768    
   170.00  0.14811    
   171.00  0.14851    
   172.00  0.14888    
   173.00  0.14921    
   174.00  0.14950    
   175.00  0.14975    
   176.00  0.14996    
   177.00  0.15013    
   178.00  0.15025    
   179.00  0.15032    
   180.00  0.15034    
 |--------|------------|
0.370000     micron = Wavelength
 1.23809     = Extinction efficiency (Q)
0.745725     = Scattering efficiency (Qs)
0.492362     = Absorption efficiency (Qa)
 138.772     = Lidar ratio
0.198369E-01 micron^2 = <b> = Average surface area per particle
0.245598E-01 microns^2 = Extinction cross section (C)
0.147929E-01 microns^2 = Scattering cross section (Cs)
0.976693E-02 microns^2 = Absorption cross section (Ca)
 |----------------------------------------------------|
 | COMMENTAIRES:                                      |
 |----------------------------------------------------|
 |   -Cross section / <b> should = efficiency         |
 |    is independant of the normalisation of dN/dx    |
 |   -The integral of the phase fct / 4 pi over all   |
 |    directions (solid angle) = 1.                   |
 |   -The volume coefficient (k) is equal to C * N    |
 |      = cross section * Number density              |
 |      typical units: [um^2]*[particles/cm^3] =      |
 |      [10^-3 km-1]                                  |
 |      N = M/(d*4/3*pi*r^3) where d is the density   |
 |      of particle, M is the mass per unit volume    |
 |      and 4/3*pi*r^3 is the average volume  of a    |
 |      particle.                                     |
 |      typical units:  M -> [ug/m^3], d -> [g/cm^3]  |
 |                      r -> [um]                     |
 |      Lidar ratio= 4 pi Qe / phase_fct(180)*Qs      |
 |----------------------------------------------------|
