 |--------|------------|
 | ANGLE  |  PHASE FCT |
 |--------|------------|
     0.00   111.48    
     1.00   104.69    
     2.00   87.178    
     3.00   65.526    
     4.00   45.794    
     5.00   30.873    
     6.00   20.744    
     7.00   14.199    
     8.00   10.069    
     9.00   7.5125    
    10.00   5.9373    
    11.00   4.9470    
    12.00   4.3080    
    13.00   3.8844    
    14.00   3.5898    
    15.00   3.3731    
    16.00   3.2071    
    17.00   3.0746    
    18.00   2.9640    
    19.00   2.8687    
    20.00   2.7852    
    21.00   2.7101    
    22.00   2.6412    
    23.00   2.5775    
    24.00   2.5178    
    25.00   2.4612    
    26.00   2.4071    
    27.00   2.3551    
    28.00   2.3049    
    29.00   2.2559    
    30.00   2.2081    
    31.00   2.1614    
    32.00   2.1154    
    33.00   2.0701    
    34.00   2.0255    
    35.00   1.9814    
    36.00   1.9378    
    37.00   1.8948    
    38.00   1.8522    
    39.00   1.8101    
    40.00   1.7684    
    41.00   1.7273    
    42.00   1.6866    
    43.00   1.6463    
    44.00   1.6066    
    45.00   1.5674    
    46.00   1.5287    
    47.00   1.4906    
    48.00   1.4530    
    49.00   1.4160    
    50.00   1.3796    
    51.00   1.3437    
    52.00   1.3086    
    53.00   1.2740    
    54.00   1.2401    
    55.00   1.2069    
    56.00   1.1743    
    57.00   1.1425    
    58.00   1.1113    
    59.00   1.0808    
    60.00   1.0510    
    61.00   1.0220    
    62.00  0.99363    
    63.00  0.96601    
    64.00  0.93911    
    65.00  0.91294    
    66.00  0.88748    
    67.00  0.86274    
    68.00  0.83872    
    69.00  0.81542    
    70.00  0.79282    
    71.00  0.77092    
    72.00  0.74973    
    73.00  0.72922    
    74.00  0.70940    
    75.00  0.69026    
    76.00  0.67177    
    77.00  0.65395    
    78.00  0.63678    
    79.00  0.62024    
    80.00  0.60433    
    81.00  0.58903    
    82.00  0.57434    
    83.00  0.56024    
    84.00  0.54672    
    85.00  0.53376    
    86.00  0.52137    
    87.00  0.50951    
    88.00  0.49819    
    89.00  0.48738    
    90.00  0.47708    
    91.00  0.46727    
    92.00  0.45794    
    93.00  0.44907    
    94.00  0.44066    
    95.00  0.43269    
    96.00  0.42515    
    97.00  0.41802    
    98.00  0.41129    
    99.00  0.40496    
   100.00  0.39900    
   101.00  0.39341    
   102.00  0.38817    
   103.00  0.38328    
   104.00  0.37871    
   105.00  0.37447    
   106.00  0.37053    
   107.00  0.36689    
   108.00  0.36353    
   109.00  0.36045    
   110.00  0.35764    
   111.00  0.35508    
   112.00  0.35276    
   113.00  0.35068    
   114.00  0.34882    
   115.00  0.34718    
   116.00  0.34575    
   117.00  0.34451    
   118.00  0.34346    
   119.00  0.34259    
   120.00  0.34189    
   121.00  0.34136    
   122.00  0.34098    
   123.00  0.34074    
   124.00  0.34065    
   125.00  0.34069    
   126.00  0.34085    
   127.00  0.34114    
   128.00  0.34153    
   129.00  0.34203    
   130.00  0.34262    
   131.00  0.34331    
   132.00  0.34408    
   133.00  0.34493    
   134.00  0.34585    
   135.00  0.34684    
   136.00  0.34789    
   137.00  0.34900    
   138.00  0.35016    
   139.00  0.35136    
   140.00  0.35261    
   141.00  0.35388    
   142.00  0.35519    
   143.00  0.35653    
   144.00  0.35788    
   145.00  0.35926    
   146.00  0.36064    
   147.00  0.36204    
   148.00  0.36343    
   149.00  0.36484    
   150.00  0.36623    
   151.00  0.36763    
   152.00  0.36902    
   153.00  0.37039    
   154.00  0.37176    
   155.00  0.37311    
   156.00  0.37445    
   157.00  0.37576    
   158.00  0.37704    
   159.00  0.37829    
   160.00  0.37950    
   161.00  0.38067    
   162.00  0.38177    
   163.00  0.38281    
   164.00  0.38379    
   165.00  0.38468    
   166.00  0.38551    
   167.00  0.38626    
   168.00  0.38696    
   169.00  0.38760    
   170.00  0.38820    
   171.00  0.38878    
   172.00  0.38933    
   173.00  0.38986    
   174.00  0.39038    
   175.00  0.39086    
   176.00  0.39129    
   177.00  0.39167    
   178.00  0.39195    
   179.00  0.39213    
   180.00  0.39219    
 |--------|------------|
0.530000     micron = Wavelength
0.554055     = Extinction efficiency (Q)
0.266949     = Scattering efficiency (Qs)
0.287105     = Absorption efficiency (Qa)
 66.5023     = Lidar ratio
0.151623E-01 micron^2 = <b> = Average surface area per particle
0.840074E-02 microns^2 = Extinction cross section (C)
0.404756E-02 microns^2 = Scattering cross section (Cs)
0.435318E-02 microns^2 = Absorption cross section (Ca)
 |----------------------------------------------------|
 | COMMENTAIRES:                                      |
 |----------------------------------------------------|
 |   -Cross section / <b> should = efficiency         |
 |    is independant of the normalisation of dN/dx    |
 |   -The integral of the phase fct / 4 pi over all   |
 |    directions (solid angle) = 1.                   |
 |   -The volume coefficient (k) is equal to C * N    |
 |      = cross section * Number density              |
 |      typical units: [um^2]*[particles/cm^3] =      |
 |      [10^-3 km-1]                                  |
 |      N = M/(d*4/3*pi*r^3) where d is the density   |
 |      of particle, M is the mass per unit volume    |
 |      and 4/3*pi*r^3 is the average volume  of a    |
 |      particle.                                     |
 |      typical units:  M -> [ug/m^3], d -> [g/cm^3]  |
 |                      r -> [um]                     |
 |      Lidar ratio= 4 pi Qe / phase_fct(180)*Qs      |
 |----------------------------------------------------|
