 |--------|------------|
 | ANGLE  |  PHASE FCT |
 |--------|------------|
     0.00   85.369    
     1.00   77.903    
     2.00   59.572    
     3.00   39.164    
     4.00   23.585    
     5.00   14.497    
     6.00   9.9658    
     7.00   7.6914    
     8.00   6.4569    
     9.00   5.7852    
    10.00   5.4028    
    11.00   5.1400    
    12.00   4.9415    
    13.00   4.7904    
    14.00   4.6629    
    15.00   4.5457    
    16.00   4.4395    
    17.00   4.3417    
    18.00   4.2469    
    19.00   4.1543    
    20.00   4.0649    
    21.00   3.9768    
    22.00   3.8888    
    23.00   3.8016    
    24.00   3.7151    
    25.00   3.6285    
    26.00   3.5420    
    27.00   3.4559    
    28.00   3.3700    
    29.00   3.2843    
    30.00   3.1989    
    31.00   3.1141    
    32.00   3.0297    
    33.00   2.9459    
    34.00   2.8629    
    35.00   2.7807    
    36.00   2.6993    
    37.00   2.6190    
    38.00   2.5398    
    39.00   2.4617    
    40.00   2.3848    
    41.00   2.3093    
    42.00   2.2351    
    43.00   2.1624    
    44.00   2.0911    
    45.00   2.0213    
    46.00   1.9532    
    47.00   1.8866    
    48.00   1.8216    
    49.00   1.7583    
    50.00   1.6966    
    51.00   1.6365    
    52.00   1.5782    
    53.00   1.5215    
    54.00   1.4665    
    55.00   1.4132    
    56.00   1.3615    
    57.00   1.3115    
    58.00   1.2630    
    59.00   1.2162    
    60.00   1.1710    
    61.00   1.1273    
    62.00   1.0851    
    63.00   1.0445    
    64.00   1.0053    
    65.00  0.96758    
    66.00  0.93125    
    67.00  0.89630    
    68.00  0.86268    
    69.00  0.83038    
    70.00  0.79934    
    71.00  0.76955    
    72.00  0.74095    
    73.00  0.71352    
    74.00  0.68722    
    75.00  0.66201    
    76.00  0.63786    
    77.00  0.61473    
    78.00  0.59259    
    79.00  0.57141    
    80.00  0.55115    
    81.00  0.53178    
    82.00  0.51326    
    83.00  0.49557    
    84.00  0.47868    
    85.00  0.46255    
    86.00  0.44716    
    87.00  0.43247    
    88.00  0.41846    
    89.00  0.40511    
    90.00  0.39238    
    91.00  0.38025    
    92.00  0.36870    
    93.00  0.35771    
    94.00  0.34725    
    95.00  0.33729    
    96.00  0.32782    
    97.00  0.31882    
    98.00  0.31027    
    99.00  0.30215    
   100.00  0.29444    
   101.00  0.28713    
   102.00  0.28019    
   103.00  0.27361    
   104.00  0.26738    
   105.00  0.26149    
   106.00  0.25590    
   107.00  0.25063    
   108.00  0.24564    
   109.00  0.24094    
   110.00  0.23650    
   111.00  0.23231    
   112.00  0.22838    
   113.00  0.22467    
   114.00  0.22120    
   115.00  0.21793    
   116.00  0.21488    
   117.00  0.21202    
   118.00  0.20936    
   119.00  0.20687    
   120.00  0.20456    
   121.00  0.20242    
   122.00  0.20044    
   123.00  0.19861    
   124.00  0.19694    
   125.00  0.19540    
   126.00  0.19400    
   127.00  0.19273    
   128.00  0.19158    
   129.00  0.19055    
   130.00  0.18964    
   131.00  0.18884    
   132.00  0.18814    
   133.00  0.18755    
   134.00  0.18705    
   135.00  0.18664    
   136.00  0.18632    
   137.00  0.18608    
   138.00  0.18592    
   139.00  0.18584    
   140.00  0.18583    
   141.00  0.18588    
   142.00  0.18600    
   143.00  0.18618    
   144.00  0.18641    
   145.00  0.18670    
   146.00  0.18703    
   147.00  0.18741    
   148.00  0.18784    
   149.00  0.18830    
   150.00  0.18879    
   151.00  0.18931    
   152.00  0.18986    
   153.00  0.19043    
   154.00  0.19103    
   155.00  0.19164    
   156.00  0.19226    
   157.00  0.19289    
   158.00  0.19353    
   159.00  0.19417    
   160.00  0.19480    
   161.00  0.19543    
   162.00  0.19606    
   163.00  0.19667    
   164.00  0.19726    
   165.00  0.19783    
   166.00  0.19838    
   167.00  0.19891    
   168.00  0.19941    
   169.00  0.19987    
   170.00  0.20031    
   171.00  0.20071    
   172.00  0.20108    
   173.00  0.20141    
   174.00  0.20171    
   175.00  0.20197    
   176.00  0.20218    
   177.00  0.20235    
   178.00  0.20248    
   179.00  0.20255    
   180.00  0.20258    
 |--------|------------|
0.370000     micron = Wavelength
 1.01033     = Extinction efficiency (Q)
0.581312     = Scattering efficiency (Qs)
0.429017     = Absorption efficiency (Qa)
 107.813     = Lidar ratio
0.151268E-01 micron^2 = <b> = Average surface area per particle
0.152831E-01 microns^2 = Extinction cross section (C)
0.879341E-02 microns^2 = Scattering cross section (Cs)
0.648967E-02 microns^2 = Absorption cross section (Ca)
 |----------------------------------------------------|
 | COMMENTAIRES:                                      |
 |----------------------------------------------------|
 |   -Cross section / <b> should = efficiency         |
 |    is independant of the normalisation of dN/dx    |
 |   -The integral of the phase fct / 4 pi over all   |
 |    directions (solid angle) = 1.                   |
 |   -The volume coefficient (k) is equal to C * N    |
 |      = cross section * Number density              |
 |      typical units: [um^2]*[particles/cm^3] =      |
 |      [10^-3 km-1]                                  |
 |      N = M/(d*4/3*pi*r^3) where d is the density   |
 |      of particle, M is the mass per unit volume    |
 |      and 4/3*pi*r^3 is the average volume  of a    |
 |      particle.                                     |
 |      typical units:  M -> [ug/m^3], d -> [g/cm^3]  |
 |                      r -> [um]                     |
 |      Lidar ratio= 4 pi Qe / phase_fct(180)*Qs      |
 |----------------------------------------------------|
