 |--------|------------|
 | ANGLE  |  PHASE FCT |
 |--------|------------|
     0.00   80.210    
     1.00   76.244    
     2.00   65.806    
     3.00   52.325    
     4.00   39.190    
     5.00   28.357    
     6.00   20.269    
     7.00   14.559    
     8.00   10.662    
     9.00   8.0677    
    10.00   6.3611    
    11.00   5.2372    
    12.00   4.4908    
    13.00   3.9879    
    14.00   3.6399    
    15.00   3.3902    
    16.00   3.2045    
    17.00   3.0609    
    18.00   2.9447    
    19.00   2.8474    
    20.00   2.7634    
    21.00   2.6889    
    22.00   2.6214    
    23.00   2.5590    
    24.00   2.5008    
    25.00   2.4458    
    26.00   2.3932    
    27.00   2.3427    
    28.00   2.2938    
    29.00   2.2464    
    30.00   2.2000    
    31.00   2.1546    
    32.00   2.1100    
    33.00   2.0661    
    34.00   2.0228    
    35.00   1.9801    
    36.00   1.9378    
    37.00   1.8961    
    38.00   1.8547    
    39.00   1.8139    
    40.00   1.7734    
    41.00   1.7334    
    42.00   1.6938    
    43.00   1.6547    
    44.00   1.6160    
    45.00   1.5778    
    46.00   1.5401    
    47.00   1.5028    
    48.00   1.4661    
    49.00   1.4299    
    50.00   1.3943    
    51.00   1.3592    
    52.00   1.3247    
    53.00   1.2908    
    54.00   1.2575    
    55.00   1.2248    
    56.00   1.1928    
    57.00   1.1614    
    58.00   1.1307    
    59.00   1.1006    
    60.00   1.0712    
    61.00   1.0425    
    62.00   1.0145    
    63.00  0.98712    
    64.00  0.96047    
    65.00  0.93451    
    66.00  0.90925    
    67.00  0.88468    
    68.00  0.86080    
    69.00  0.83763    
    70.00  0.81514    
    71.00  0.79333    
    72.00  0.77221    
    73.00  0.75176    
    74.00  0.73198    
    75.00  0.71287    
    76.00  0.69442    
    77.00  0.67660    
    78.00  0.65943    
    79.00  0.64289    
    80.00  0.62697    
    81.00  0.61167    
    82.00  0.59696    
    83.00  0.58284    
    84.00  0.56930    
    85.00  0.55633    
    86.00  0.54392    
    87.00  0.53205    
    88.00  0.52071    
    89.00  0.50989    
    90.00  0.49958    
    91.00  0.48977    
    92.00  0.48044    
    93.00  0.47159    
    94.00  0.46319    
    95.00  0.45524    
    96.00  0.44772    
    97.00  0.44062    
    98.00  0.43394    
    99.00  0.42765    
   100.00  0.42175    
   101.00  0.41622    
   102.00  0.41106    
   103.00  0.40624    
   104.00  0.40176    
   105.00  0.39761    
   106.00  0.39377    
   107.00  0.39024    
   108.00  0.38701    
   109.00  0.38405    
   110.00  0.38137    
   111.00  0.37895    
   112.00  0.37678    
   113.00  0.37485    
   114.00  0.37316    
   115.00  0.37168    
   116.00  0.37042    
   117.00  0.36936    
   118.00  0.36850    
   119.00  0.36782    
   120.00  0.36732    
   121.00  0.36698    
   122.00  0.36681    
   123.00  0.36678    
   124.00  0.36690    
   125.00  0.36716    
   126.00  0.36754    
   127.00  0.36804    
   128.00  0.36866    
   129.00  0.36938    
   130.00  0.37020    
   131.00  0.37112    
   132.00  0.37212    
   133.00  0.37320    
   134.00  0.37435    
   135.00  0.37557    
   136.00  0.37685    
   137.00  0.37818    
   138.00  0.37957    
   139.00  0.38100    
   140.00  0.38247    
   141.00  0.38397    
   142.00  0.38550    
   143.00  0.38705    
   144.00  0.38862    
   145.00  0.39021    
   146.00  0.39181    
   147.00  0.39341    
   148.00  0.39502    
   149.00  0.39663    
   150.00  0.39823    
   151.00  0.39983    
   152.00  0.40142    
   153.00  0.40300    
   154.00  0.40456    
   155.00  0.40611    
   156.00  0.40763    
   157.00  0.40912    
   158.00  0.41057    
   159.00  0.41198    
   160.00  0.41333    
   161.00  0.41462    
   162.00  0.41584    
   163.00  0.41697    
   164.00  0.41802    
   165.00  0.41899    
   166.00  0.41987    
   167.00  0.42068    
   168.00  0.42144    
   169.00  0.42214    
   170.00  0.42281    
   171.00  0.42347    
   172.00  0.42410    
   173.00  0.42473    
   174.00  0.42534    
   175.00  0.42592    
   176.00  0.42644    
   177.00  0.42689    
   178.00  0.42723    
   179.00  0.42744    
   180.00  0.42752    
 |--------|------------|
0.450000     micron = Wavelength
0.519488     = Extinction efficiency (Q)
0.244375     = Scattering efficiency (Qs)
0.275113     = Absorption efficiency (Qa)
 62.4847     = Lidar ratio
0.100537E-01 micron^2 = <b> = Average surface area per particle
0.522279E-02 microns^2 = Extinction cross section (C)
0.245688E-02 microns^2 = Scattering cross section (Cs)
0.276591E-02 microns^2 = Absorption cross section (Ca)
 |----------------------------------------------------|
 | COMMENTAIRES:                                      |
 |----------------------------------------------------|
 |   -Cross section / <b> should = efficiency         |
 |    is independant of the normalisation of dN/dx    |
 |   -The integral of the phase fct / 4 pi over all   |
 |    directions (solid angle) = 1.                   |
 |   -The volume coefficient (k) is equal to C * N    |
 |      = cross section * Number density              |
 |      typical units: [um^2]*[particles/cm^3] =      |
 |      [10^-3 km-1]                                  |
 |      N = M/(d*4/3*pi*r^3) where d is the density   |
 |      of particle, M is the mass per unit volume    |
 |      and 4/3*pi*r^3 is the average volume  of a    |
 |      particle.                                     |
 |      typical units:  M -> [ug/m^3], d -> [g/cm^3]  |
 |                      r -> [um]                     |
 |      Lidar ratio= 4 pi Qe / phase_fct(180)*Qs      |
 |----------------------------------------------------|
