 |--------|------------|
 | ANGLE  |  PHASE FCT |
 |--------|------------|
     0.00   51.834    
     1.00   51.311    
     2.00   49.789    
     3.00   47.401    
     4.00   44.337    
     5.00   40.811    
     6.00   37.035    
     7.00   33.192    
     8.00   29.432    
     9.00   25.865    
    10.00   22.562    
    11.00   19.565    
    12.00   16.889    
    13.00   14.534    
    14.00   12.483    
    15.00   10.714    
    16.00   9.1997    
    17.00   7.9120    
    18.00   6.8224    
    19.00   5.9039    
    20.00   5.1321    
    21.00   4.4846    
    22.00   3.9419    
    23.00   3.4872    
    24.00   3.1058    
    25.00   2.7853    
    26.00   2.5154    
    27.00   2.2872    
    28.00   2.0935    
    29.00   1.9282    
    30.00   1.7864    
    31.00   1.6639    
    32.00   1.5574    
    33.00   1.4641    
    34.00   1.3818    
    35.00   1.3086    
    36.00   1.2431    
    37.00   1.1840    
    38.00   1.1303    
    39.00   1.0812    
    40.00   1.0360    
    41.00  0.99422    
    42.00  0.95539    
    43.00  0.91913    
    44.00  0.88515    
    45.00  0.85319    
    46.00  0.82303    
    47.00  0.79451    
    48.00  0.76747    
    49.00  0.74179    
    50.00  0.71735    
    51.00  0.69406    
    52.00  0.67185    
    53.00  0.65065    
    54.00  0.63038    
    55.00  0.61100    
    56.00  0.59246    
    57.00  0.57470    
    58.00  0.55769    
    59.00  0.54139    
    60.00  0.52578    
    61.00  0.51081    
    62.00  0.49646    
    63.00  0.48270    
    64.00  0.46951    
    65.00  0.45686    
    66.00  0.44474    
    67.00  0.43312    
    68.00  0.42199    
    69.00  0.41132    
    70.00  0.40111    
    71.00  0.39133    
    72.00  0.38196    
    73.00  0.37300    
    74.00  0.36444    
    75.00  0.35625    
    76.00  0.34843    
    77.00  0.34097    
    78.00  0.33385    
    79.00  0.32707    
    80.00  0.32060    
    81.00  0.31446    
    82.00  0.30862    
    83.00  0.30307    
    84.00  0.29782    
    85.00  0.29284    
    86.00  0.28814    
    87.00  0.28369    
    88.00  0.27951    
    89.00  0.27558    
    90.00  0.27189    
    91.00  0.26843    
    92.00  0.26521    
    93.00  0.26221    
    94.00  0.25942    
    95.00  0.25685    
    96.00  0.25448    
    97.00  0.25231    
    98.00  0.25034    
    99.00  0.24855    
   100.00  0.24695    
   101.00  0.24553    
   102.00  0.24427    
   103.00  0.24319    
   104.00  0.24227    
   105.00  0.24150    
   106.00  0.24089    
   107.00  0.24042    
   108.00  0.24010    
   109.00  0.23992    
   110.00  0.23987    
   111.00  0.23995    
   112.00  0.24016    
   113.00  0.24048    
   114.00  0.24093    
   115.00  0.24149    
   116.00  0.24215    
   117.00  0.24292    
   118.00  0.24380    
   119.00  0.24477    
   120.00  0.24584    
   121.00  0.24700    
   122.00  0.24825    
   123.00  0.24959    
   124.00  0.25102    
   125.00  0.25252    
   126.00  0.25411    
   127.00  0.25577    
   128.00  0.25751    
   129.00  0.25934    
   130.00  0.26123    
   131.00  0.26321    
   132.00  0.26526    
   133.00  0.26738    
   134.00  0.26959    
   135.00  0.27187    
   136.00  0.27423    
   137.00  0.27667    
   138.00  0.27919    
   139.00  0.28179    
   140.00  0.28446    
   141.00  0.28721    
   142.00  0.29002    
   143.00  0.29289    
   144.00  0.29580    
   145.00  0.29874    
   146.00  0.30170    
   147.00  0.30464    
   148.00  0.30754    
   149.00  0.31035    
   150.00  0.31305    
   151.00  0.31559    
   152.00  0.31792    
   153.00  0.31999    
   154.00  0.32177    
   155.00  0.32320    
   156.00  0.32425    
   157.00  0.32491    
   158.00  0.32516    
   159.00  0.32503    
   160.00  0.32455    
   161.00  0.32378    
   162.00  0.32281    
   163.00  0.32174    
   164.00  0.32070    
   165.00  0.31982    
   166.00  0.31923    
   167.00  0.31905    
   168.00  0.31939    
   169.00  0.32032    
   170.00  0.32185    
   171.00  0.32397    
   172.00  0.32660    
   173.00  0.32961    
   174.00  0.33283    
   175.00  0.33608    
   176.00  0.33912    
   177.00  0.34175    
   178.00  0.34379    
   179.00  0.34507    
   180.00  0.34551    
 |--------|------------|
0.520000     micron = Wavelength
0.188587     = Extinction efficiency (Q)
0.658038E-01 = Scattering efficiency (Qs)
0.122783     = Absorption efficiency (Qa)
 104.234     = Lidar ratio
0.272779E-02 micron^2 = <b> = Average surface area per particle
0.514425E-03 microns^2 = Extinction cross section (C)
0.179499E-03 microns^2 = Scattering cross section (Cs)
0.334927E-03 microns^2 = Absorption cross section (Ca)
 |----------------------------------------------------|
 | COMMENTAIRES:                                      |
 |----------------------------------------------------|
 |   -Cross section / <b> should = efficiency         |
 |    is independant of the normalisation of dN/dx    |
 |   -The integral of the phase fct / 4 pi over all   |
 |    directions (solid angle) = 1.                   |
 |   -The volume coefficient (k) is equal to C * N    |
 |      = cross section * Number density              |
 |      typical units: [um^2]*[particles/cm^3] =      |
 |      [10^-3 km-1]                                  |
 |      N = M/(d*4/3*pi*r^3) where d is the density   |
 |      of particle, M is the mass per unit volume    |
 |      and 4/3*pi*r^3 is the average volume  of a    |
 |      particle.                                     |
 |      typical units:  M -> [ug/m^3], d -> [g/cm^3]  |
 |                      r -> [um]                     |
 |      Lidar ratio= 4 pi Qe / phase_fct(180)*Qs      |
 |----------------------------------------------------|
