 |--------|------------|
 | ANGLE  |  PHASE FCT |
 |--------|------------|
     0.00   50.659    
     1.00   50.167    
     2.00   48.734    
     3.00   46.480    
     4.00   43.579    
     5.00   40.229    
     6.00   36.625    
     7.00   32.942    
     8.00   29.320    
     9.00   25.866    
    10.00   22.653    
    11.00   19.721    
    12.00   17.091    
    13.00   14.762    
    14.00   12.725    
    15.00   10.958    
    16.00   9.4392    
    17.00   8.1405    
    18.00   7.0363    
    19.00   6.1012    
    20.00   5.3116    
    21.00   4.6465    
    22.00   4.0866    
    23.00   3.6155    
    24.00   3.2190    
    25.00   2.8846    
    26.00   2.6022    
    27.00   2.3627    
    28.00   2.1590    
    29.00   1.9848    
    30.00   1.8352    
    31.00   1.7058    
    32.00   1.5933    
    33.00   1.4948    
    34.00   1.4079    
    35.00   1.3307    
    36.00   1.2617    
    37.00   1.1995    
    38.00   1.1431    
    39.00   1.0916    
    40.00   1.0444    
    41.00   1.0008    
    42.00  0.96035    
    43.00  0.92267    
    44.00  0.88742    
    45.00  0.85434    
    46.00  0.82318    
    47.00  0.79378    
    48.00  0.76594    
    49.00  0.73954    
    50.00  0.71447    
    51.00  0.69062    
    52.00  0.66790    
    53.00  0.64624    
    54.00  0.62556    
    55.00  0.60581    
    56.00  0.58694    
    57.00  0.56888    
    58.00  0.55161    
    59.00  0.53508    
    60.00  0.51925    
    61.00  0.50410    
    62.00  0.48959    
    63.00  0.47569    
    64.00  0.46237    
    65.00  0.44961    
    66.00  0.43739    
    67.00  0.42569    
    68.00  0.41449    
    69.00  0.40376    
    70.00  0.39350    
    71.00  0.38367    
    72.00  0.37427    
    73.00  0.36529    
    74.00  0.35670    
    75.00  0.34849    
    76.00  0.34066    
    77.00  0.33318    
    78.00  0.32606    
    79.00  0.31927    
    80.00  0.31280    
    81.00  0.30665    
    82.00  0.30081    
    83.00  0.29526    
    84.00  0.29000    
    85.00  0.28502    
    86.00  0.28031    
    87.00  0.27586    
    88.00  0.27167    
    89.00  0.26773    
    90.00  0.26402    
    91.00  0.26056    
    92.00  0.25731    
    93.00  0.25429    
    94.00  0.25149    
    95.00  0.24889    
    96.00  0.24650    
    97.00  0.24430    
    98.00  0.24229    
    99.00  0.24047    
   100.00  0.23882    
   101.00  0.23736    
   102.00  0.23606    
   103.00  0.23492    
   104.00  0.23395    
   105.00  0.23313    
   106.00  0.23246    
   107.00  0.23193    
   108.00  0.23154    
   109.00  0.23129    
   110.00  0.23118    
   111.00  0.23118    
   112.00  0.23132    
   113.00  0.23157    
   114.00  0.23193    
   115.00  0.23241    
   116.00  0.23300    
   117.00  0.23369    
   118.00  0.23448    
   119.00  0.23536    
   120.00  0.23634    
   121.00  0.23742    
   122.00  0.23858    
   123.00  0.23983    
   124.00  0.24116    
   125.00  0.24258    
   126.00  0.24408    
   127.00  0.24566    
   128.00  0.24732    
   129.00  0.24905    
   130.00  0.25086    
   131.00  0.25276    
   132.00  0.25473    
   133.00  0.25678    
   134.00  0.25891    
   135.00  0.26112    
   136.00  0.26341    
   137.00  0.26578    
   138.00  0.26823    
   139.00  0.27076    
   140.00  0.27337    
   141.00  0.27604    
   142.00  0.27879    
   143.00  0.28159    
   144.00  0.28444    
   145.00  0.28731    
   146.00  0.29018    
   147.00  0.29304    
   148.00  0.29585    
   149.00  0.29857    
   150.00  0.30117    
   151.00  0.30359    
   152.00  0.30580    
   153.00  0.30774    
   154.00  0.30937    
   155.00  0.31065    
   156.00  0.31155    
   157.00  0.31205    
   158.00  0.31215    
   159.00  0.31186    
   160.00  0.31123    
   161.00  0.31032    
   162.00  0.30922    
   163.00  0.30804    
   164.00  0.30689    
   165.00  0.30593    
   166.00  0.30527    
   167.00  0.30504    
   168.00  0.30534    
   169.00  0.30624    
   170.00  0.30776    
   171.00  0.30986    
   172.00  0.31249    
   173.00  0.31550    
   174.00  0.31872    
   175.00  0.32196    
   176.00  0.32500    
   177.00  0.32764    
   178.00  0.32967    
   179.00  0.33095    
   180.00  0.33139    
 |--------|------------|
0.530000     micron = Wavelength
0.185816     = Extinction efficiency (Q)
0.653282E-01 = Scattering efficiency (Qs)
0.120488     = Absorption efficiency (Qa)
 107.858     = Lidar ratio
0.272779E-02 micron^2 = <b> = Average surface area per particle
0.506866E-03 microns^2 = Extinction cross section (C)
0.178201E-03 microns^2 = Scattering cross section (Cs)
0.328665E-03 microns^2 = Absorption cross section (Ca)
 |----------------------------------------------------|
 | COMMENTAIRES:                                      |
 |----------------------------------------------------|
 |   -Cross section / <b> should = efficiency         |
 |    is independant of the normalisation of dN/dx    |
 |   -The integral of the phase fct / 4 pi over all   |
 |    directions (solid angle) = 1.                   |
 |   -The volume coefficient (k) is equal to C * N    |
 |      = cross section * Number density              |
 |      typical units: [um^2]*[particles/cm^3] =      |
 |      [10^-3 km-1]                                  |
 |      N = M/(d*4/3*pi*r^3) where d is the density   |
 |      of particle, M is the mass per unit volume    |
 |      and 4/3*pi*r^3 is the average volume  of a    |
 |      particle.                                     |
 |      typical units:  M -> [ug/m^3], d -> [g/cm^3]  |
 |                      r -> [um]                     |
 |      Lidar ratio= 4 pi Qe / phase_fct(180)*Qs      |
 |----------------------------------------------------|
