 |--------|------------|
 | ANGLE  |  PHASE FCT |
 |--------|------------|
     0.00   37.947    
     1.00   37.704    
     2.00   36.989    
     3.00   35.844    
     4.00   34.329    
     5.00   32.521    
     6.00   30.499    
     7.00   28.344    
     8.00   26.126    
     9.00   23.909    
    10.00   21.742    
    11.00   19.665    
    12.00   17.705    
    13.00   15.880    
    14.00   14.200    
    15.00   12.668    
    16.00   11.283    
    17.00   10.040    
    18.00   8.9298    
    19.00   7.9439    
    20.00   7.0716    
    21.00   6.3026    
    22.00   5.6263    
    23.00   5.0329    
    24.00   4.5128    
    25.00   4.0575    
    26.00   3.6589    
    27.00   3.3098    
    28.00   3.0041    
    29.00   2.7359    
    30.00   2.5002    
    31.00   2.2928    
    32.00   2.1099    
    33.00   1.9480    
    34.00   1.8044    
    35.00   1.6766    
    36.00   1.5625    
    37.00   1.4602    
    38.00   1.3682    
    39.00   1.2852    
    40.00   1.2099    
    41.00   1.1415    
    42.00   1.0790    
    43.00   1.0218    
    44.00  0.96919    
    45.00  0.92069    
    46.00  0.87584    
    47.00  0.83423    
    48.00  0.79554    
    49.00  0.75947    
    50.00  0.72576    
    51.00  0.69420    
    52.00  0.66459    
    53.00  0.63676    
    54.00  0.61057    
    55.00  0.58588    
    56.00  0.56258    
    57.00  0.54057    
    58.00  0.51974    
    59.00  0.50003    
    60.00  0.48135    
    61.00  0.46364    
    62.00  0.44684    
    63.00  0.43089    
    64.00  0.41574    
    65.00  0.40134    
    66.00  0.38766    
    67.00  0.37466    
    68.00  0.36229    
    69.00  0.35052    
    70.00  0.33932    
    71.00  0.32867    
    72.00  0.31854    
    73.00  0.30889    
    74.00  0.29971    
    75.00  0.29098    
    76.00  0.28267    
    77.00  0.27477    
    78.00  0.26725    
    79.00  0.26010    
    80.00  0.25330    
    81.00  0.24685    
    82.00  0.24071    
    83.00  0.23488    
    84.00  0.22935    
    85.00  0.22410    
    86.00  0.21912    
    87.00  0.21441    
    88.00  0.20994    
    89.00  0.20572    
    90.00  0.20173    
    91.00  0.19796    
    92.00  0.19440    
    93.00  0.19105    
    94.00  0.18789    
    95.00  0.18493    
    96.00  0.18215    
    97.00  0.17955    
    98.00  0.17711    
    99.00  0.17485    
   100.00  0.17274    
   101.00  0.17078    
   102.00  0.16897    
   103.00  0.16730    
   104.00  0.16577    
   105.00  0.16437    
   106.00  0.16310    
   107.00  0.16196    
   108.00  0.16094    
   109.00  0.16003    
   110.00  0.15924    
   111.00  0.15856    
   112.00  0.15798    
   113.00  0.15751    
   114.00  0.15714    
   115.00  0.15686    
   116.00  0.15669    
   117.00  0.15661    
   118.00  0.15662    
   119.00  0.15672    
   120.00  0.15691    
   121.00  0.15719    
   122.00  0.15756    
   123.00  0.15802    
   124.00  0.15856    
   125.00  0.15918    
   126.00  0.15990    
   127.00  0.16069    
   128.00  0.16158    
   129.00  0.16255    
   130.00  0.16360    
   131.00  0.16474    
   132.00  0.16597    
   133.00  0.16728    
   134.00  0.16868    
   135.00  0.17016    
   136.00  0.17171    
   137.00  0.17335    
   138.00  0.17505    
   139.00  0.17682    
   140.00  0.17864    
   141.00  0.18050    
   142.00  0.18239    
   143.00  0.18429    
   144.00  0.18617    
   145.00  0.18803    
   146.00  0.18982    
   147.00  0.19152    
   148.00  0.19309    
   149.00  0.19450    
   150.00  0.19570    
   151.00  0.19667    
   152.00  0.19738    
   153.00  0.19777    
   154.00  0.19784    
   155.00  0.19757    
   156.00  0.19696    
   157.00  0.19600    
   158.00  0.19474    
   159.00  0.19320    
   160.00  0.19146    
   161.00  0.18959    
   162.00  0.18769    
   163.00  0.18586    
   164.00  0.18421    
   165.00  0.18284    
   166.00  0.18188    
   167.00  0.18139    
   168.00  0.18144    
   169.00  0.18206    
   170.00  0.18325    
   171.00  0.18496    
   172.00  0.18711    
   173.00  0.18958    
   174.00  0.19222    
   175.00  0.19486    
   176.00  0.19732    
   177.00  0.19945    
   178.00  0.20108    
   179.00  0.20211    
   180.00  0.20246    
 |--------|------------|
0.650000     micron = Wavelength
0.165059     = Extinction efficiency (Q)
0.643807E-01 = Scattering efficiency (Qs)
0.100678     = Absorption efficiency (Qa)
 159.128     = Lidar ratio
0.272779E-02 micron^2 = <b> = Average surface area per particle
0.450246E-03 microns^2 = Extinction cross section (C)
0.175617E-03 microns^2 = Scattering cross section (Cs)
0.274629E-03 microns^2 = Absorption cross section (Ca)
 |----------------------------------------------------|
 | COMMENTAIRES:                                      |
 |----------------------------------------------------|
 |   -Cross section / <b> should = efficiency         |
 |    is independant of the normalisation of dN/dx    |
 |   -The integral of the phase fct / 4 pi over all   |
 |    directions (solid angle) = 1.                   |
 |   -The volume coefficient (k) is equal to C * N    |
 |      = cross section * Number density              |
 |      typical units: [um^2]*[particles/cm^3] =      |
 |      [10^-3 km-1]                                  |
 |      N = M/(d*4/3*pi*r^3) where d is the density   |
 |      of particle, M is the mass per unit volume    |
 |      and 4/3*pi*r^3 is the average volume  of a    |
 |      particle.                                     |
 |      typical units:  M -> [ug/m^3], d -> [g/cm^3]  |
 |                      r -> [um]                     |
 |      Lidar ratio= 4 pi Qe / phase_fct(180)*Qs      |
 |----------------------------------------------------|
