 |--------|------------|
 | ANGLE  |  PHASE FCT |
 |--------|------------|
     0.00   69.934    
     1.00   68.702    
     2.00   65.195    
     3.00   59.916    
     4.00   53.525    
     5.00   46.673    
     6.00   39.888    
     7.00   33.543    
     8.00   27.852    
     9.00   22.911    
    10.00   18.729    
    11.00   15.257    
    12.00   12.421    
    13.00   10.130    
    14.00   8.2992    
    15.00   6.8455    
    16.00   5.6973    
    17.00   4.7933    
    18.00   4.0826    
    19.00   3.5237    
    20.00   3.0834    
    21.00   2.7351    
    22.00   2.4581    
    23.00   2.2362    
    24.00   2.0568    
    25.00   1.9102    
    26.00   1.7891    
    27.00   1.6876    
    28.00   1.6015    
    29.00   1.5273    
    30.00   1.4625    
    31.00   1.4052    
    32.00   1.3538    
    33.00   1.3073    
    34.00   1.2646    
    35.00   1.2252    
    36.00   1.1884    
    37.00   1.1540    
    38.00   1.1215    
    39.00   1.0906    
    40.00   1.0613    
    41.00   1.0332    
    42.00   1.0064    
    43.00  0.98056    
    44.00  0.95572    
    45.00  0.93175    
    46.00  0.90862    
    47.00  0.88626    
    48.00  0.86461    
    49.00  0.84365    
    50.00  0.82332    
    51.00  0.80361    
    52.00  0.78449    
    53.00  0.76592    
    54.00  0.74791    
    55.00  0.73041    
    56.00  0.71342    
    57.00  0.69692    
    58.00  0.68090    
    59.00  0.66535    
    60.00  0.65025    
    61.00  0.63560    
    62.00  0.62139    
    63.00  0.60761    
    64.00  0.59424    
    65.00  0.58130    
    66.00  0.56876    
    67.00  0.55662    
    68.00  0.54488    
    69.00  0.53353    
    70.00  0.52257    
    71.00  0.51198    
    72.00  0.50177    
    73.00  0.49193    
    74.00  0.48246    
    75.00  0.47335    
    76.00  0.46460    
    77.00  0.45620    
    78.00  0.44815    
    79.00  0.44044    
    80.00  0.43307    
    81.00  0.42604    
    82.00  0.41933    
    83.00  0.41295    
    84.00  0.40689    
    85.00  0.40114    
    86.00  0.39571    
    87.00  0.39058    
    88.00  0.38575    
    89.00  0.38122    
    90.00  0.37698    
    91.00  0.37302    
    92.00  0.36934    
    93.00  0.36594    
    94.00  0.36281    
    95.00  0.35994    
    96.00  0.35732    
    97.00  0.35496    
    98.00  0.35285    
    99.00  0.35097    
   100.00  0.34933    
   101.00  0.34792    
   102.00  0.34674    
   103.00  0.34577    
   104.00  0.34501    
   105.00  0.34445    
   106.00  0.34410    
   107.00  0.34393    
   108.00  0.34396    
   109.00  0.34416    
   110.00  0.34454    
   111.00  0.34509    
   112.00  0.34580    
   113.00  0.34666    
   114.00  0.34767    
   115.00  0.34883    
   116.00  0.35013    
   117.00  0.35156    
   118.00  0.35311    
   119.00  0.35479    
   120.00  0.35658    
   121.00  0.35847    
   122.00  0.36047    
   123.00  0.36257    
   124.00  0.36476    
   125.00  0.36703    
   126.00  0.36938    
   127.00  0.37181    
   128.00  0.37431    
   129.00  0.37688    
   130.00  0.37951    
   131.00  0.38219    
   132.00  0.38493    
   133.00  0.38772    
   134.00  0.39055    
   135.00  0.39343    
   136.00  0.39635    
   137.00  0.39931    
   138.00  0.40231    
   139.00  0.40535    
   140.00  0.40842    
   141.00  0.41153    
   142.00  0.41468    
   143.00  0.41787    
   144.00  0.42109    
   145.00  0.42436    
   146.00  0.42765    
   147.00  0.43098    
   148.00  0.43433    
   149.00  0.43769    
   150.00  0.44104    
   151.00  0.44437    
   152.00  0.44765    
   153.00  0.45084    
   154.00  0.45390    
   155.00  0.45680    
   156.00  0.45948    
   157.00  0.46191    
   158.00  0.46403    
   159.00  0.46582    
   160.00  0.46726    
   161.00  0.46834    
   162.00  0.46907    
   163.00  0.46951    
   164.00  0.46973    
   165.00  0.46980    
   166.00  0.46985    
   167.00  0.46998    
   168.00  0.47031    
   169.00  0.47095    
   170.00  0.47196    
   171.00  0.47338    
   172.00  0.47520    
   173.00  0.47736    
   174.00  0.47975    
   175.00  0.48221    
   176.00  0.48457    
   177.00  0.48666    
   178.00  0.48829    
   179.00  0.48933    
   180.00  0.48969    
 |--------|------------|
0.550000     micron = Wavelength
0.239649     = Extinction efficiency (Q)
0.842508E-01 = Scattering efficiency (Qs)
0.155398     = Absorption efficiency (Qa)
 72.9946     = Lidar ratio
0.513787E-02 micron^2 = <b> = Average surface area per particle
0.123129E-02 microns^2 = Extinction cross section (C)
0.432870E-03 microns^2 = Scattering cross section (Cs)
0.798416E-03 microns^2 = Absorption cross section (Ca)
 |----------------------------------------------------|
 | COMMENTAIRES:                                      |
 |----------------------------------------------------|
 |   -Cross section / <b> should = efficiency         |
 |    is independant of the normalisation of dN/dx    |
 |   -The integral of the phase fct / 4 pi over all   |
 |    directions (solid angle) = 1.                   |
 |   -The volume coefficient (k) is equal to C * N    |
 |      = cross section * Number density              |
 |      typical units: [um^2]*[particles/cm^3] =      |
 |      [10^-3 km-1]                                  |
 |      N = M/(d*4/3*pi*r^3) where d is the density   |
 |      of particle, M is the mass per unit volume    |
 |      and 4/3*pi*r^3 is the average volume  of a    |
 |      particle.                                     |
 |      typical units:  M -> [ug/m^3], d -> [g/cm^3]  |
 |                      r -> [um]                     |
 |      Lidar ratio= 4 pi Qe / phase_fct(180)*Qs      |
 |----------------------------------------------------|
