 |--------|------------|
 | ANGLE  |  PHASE FCT |
 |--------|------------|
     0.00   93.324    
     1.00   85.805    
     2.00   67.114    
     3.00   45.709    
     4.00   28.535    
     5.00   17.697    
     6.00   11.733    
     7.00   8.5124    
     8.00   6.7197    
     9.00   5.7263    
    10.00   5.1606    
    11.00   4.7983    
    12.00   4.5460    
    13.00   4.3643    
    14.00   4.2206    
    15.00   4.0969    
    16.00   3.9894    
    17.00   3.8938    
    18.00   3.8044    
    19.00   3.7196    
    20.00   3.6395    
    21.00   3.5620    
    22.00   3.4860    
    23.00   3.4115    
    24.00   3.3384    
    25.00   3.2658    
    26.00   3.1936    
    27.00   3.1221    
    28.00   3.0510    
    29.00   2.9800    
    30.00   2.9095    
    31.00   2.8394    
    32.00   2.7696    
    33.00   2.7002    
    34.00   2.6313    
    35.00   2.5630    
    36.00   2.4952    
    37.00   2.4280    
    38.00   2.3616    
    39.00   2.2960    
    40.00   2.2312    
    41.00   2.1672    
    42.00   2.1042    
    43.00   2.0422    
    44.00   1.9812    
    45.00   1.9213    
    46.00   1.8626    
    47.00   1.8049    
    48.00   1.7484    
    49.00   1.6932    
    50.00   1.6391    
    51.00   1.5863    
    52.00   1.5348    
    53.00   1.4845    
    54.00   1.4355    
    55.00   1.3878    
    56.00   1.3414    
    57.00   1.2963    
    58.00   1.2525    
    59.00   1.2100    
    60.00   1.1687    
    61.00   1.1287    
    62.00   1.0899    
    63.00   1.0524    
    64.00   1.0161    
    65.00  0.98100    
    66.00  0.94710    
    67.00  0.91435    
    68.00  0.88275    
    69.00  0.85228    
    70.00  0.82290    
    71.00  0.79460    
    72.00  0.76735    
    73.00  0.74112    
    74.00  0.71590    
    75.00  0.69166    
    76.00  0.66837    
    77.00  0.64600    
    78.00  0.62453    
    79.00  0.60394    
    80.00  0.58419    
    81.00  0.56526    
    82.00  0.54714    
    83.00  0.52978    
    84.00  0.51318    
    85.00  0.49729    
    86.00  0.48211    
    87.00  0.46760    
    88.00  0.45375    
    89.00  0.44052    
    90.00  0.42791    
    91.00  0.41588    
    92.00  0.40442    
    93.00  0.39350    
    94.00  0.38311    
    95.00  0.37322    
    96.00  0.36382    
    97.00  0.35489    
    98.00  0.34641    
    99.00  0.33837    
   100.00  0.33074    
   101.00  0.32351    
   102.00  0.31666    
   103.00  0.31019    
   104.00  0.30407    
   105.00  0.29829    
   106.00  0.29283    
   107.00  0.28770    
   108.00  0.28286    
   109.00  0.27832    
   110.00  0.27405    
   111.00  0.27005    
   112.00  0.26630    
   113.00  0.26280    
   114.00  0.25953    
   115.00  0.25649    
   116.00  0.25366    
   117.00  0.25104    
   118.00  0.24862    
   119.00  0.24639    
   120.00  0.24434    
   121.00  0.24247    
   122.00  0.24076    
   123.00  0.23921    
   124.00  0.23781    
   125.00  0.23656    
   126.00  0.23545    
   127.00  0.23447    
   128.00  0.23361    
   129.00  0.23288    
   130.00  0.23226    
   131.00  0.23175    
   132.00  0.23135    
   133.00  0.23104    
   134.00  0.23083    
   135.00  0.23070    
   136.00  0.23066    
   137.00  0.23070    
   138.00  0.23082    
   139.00  0.23100    
   140.00  0.23125    
   141.00  0.23156    
   142.00  0.23193    
   143.00  0.23235    
   144.00  0.23281    
   145.00  0.23333    
   146.00  0.23388    
   147.00  0.23447    
   148.00  0.23509    
   149.00  0.23574    
   150.00  0.23641    
   151.00  0.23711    
   152.00  0.23783    
   153.00  0.23855    
   154.00  0.23929    
   155.00  0.24004    
   156.00  0.24079    
   157.00  0.24154    
   158.00  0.24229    
   159.00  0.24304    
   160.00  0.24377    
   161.00  0.24449    
   162.00  0.24519    
   163.00  0.24587    
   164.00  0.24653    
   165.00  0.24715    
   166.00  0.24775    
   167.00  0.24831    
   168.00  0.24884    
   169.00  0.24933    
   170.00  0.24979    
   171.00  0.25021    
   172.00  0.25060    
   173.00  0.25096    
   174.00  0.25128    
   175.00  0.25156    
   176.00  0.25179    
   177.00  0.25198    
   178.00  0.25212    
   179.00  0.25221    
   180.00  0.25224    
 |--------|------------|
0.410000     micron = Wavelength
0.852418     = Extinction efficiency (Q)
0.468914     = Scattering efficiency (Qs)
0.383503     = Absorption efficiency (Qa)
 90.5638     = Lidar ratio
0.151432E-01 micron^2 = <b> = Average surface area per particle
0.129083E-01 microns^2 = Extinction cross section (C)
0.710085E-02 microns^2 = Scattering cross section (Cs)
0.580746E-02 microns^2 = Absorption cross section (Ca)
 |----------------------------------------------------|
 | COMMENTAIRES:                                      |
 |----------------------------------------------------|
 |   -Cross section / <b> should = efficiency         |
 |    is independant of the normalisation of dN/dx    |
 |   -The integral of the phase fct / 4 pi over all   |
 |    directions (solid angle) = 1.                   |
 |   -The volume coefficient (k) is equal to C * N    |
 |      = cross section * Number density              |
 |      typical units: [um^2]*[particles/cm^3] =      |
 |      [10^-3 km-1]                                  |
 |      N = M/(d*4/3*pi*r^3) where d is the density   |
 |      of particle, M is the mass per unit volume    |
 |      and 4/3*pi*r^3 is the average volume  of a    |
 |      particle.                                     |
 |      typical units:  M -> [ug/m^3], d -> [g/cm^3]  |
 |                      r -> [um]                     |
 |      Lidar ratio= 4 pi Qe / phase_fct(180)*Qs      |
 |----------------------------------------------------|
