 |--------|------------|
 | ANGLE  |  PHASE FCT |
 |--------|------------|
     0.00   68.690    
     1.00   67.360    
     2.00   63.592    
     3.00   57.975    
     4.00   51.265    
     5.00   44.183    
     6.00   37.293    
     7.00   30.964    
     8.00   25.393    
     9.00   20.645    
    10.00   16.699    
    11.00   13.482    
    12.00   10.898    
    13.00   8.8476    
    14.00   7.2342    
    15.00   5.9728    
    16.00   4.9907    
    17.00   4.2273    
    18.00   3.6342    
    19.00   3.1724    
    20.00   2.8114    
    21.00   2.5276    
    22.00   2.3026    
    23.00   2.1226    
    24.00   1.9769    
    25.00   1.8573    
    26.00   1.7577    
    27.00   1.6736    
    28.00   1.6014    
    29.00   1.5385    
    30.00   1.4829    
    31.00   1.4331    
    32.00   1.3879    
    33.00   1.3464    
    34.00   1.3080    
    35.00   1.2722    
    36.00   1.2385    
    37.00   1.2065    
    38.00   1.1762    
    39.00   1.1472    
    40.00   1.1194    
    41.00   1.0926    
    42.00   1.0668    
    43.00   1.0419    
    44.00   1.0178    
    45.00  0.99439    
    46.00  0.97167    
    47.00  0.94959    
    48.00  0.92812    
    49.00  0.90721    
    50.00  0.88685    
    51.00  0.86701    
    52.00  0.84767    
    53.00  0.82881    
    54.00  0.81042    
    55.00  0.79249    
    56.00  0.77501    
    57.00  0.75798    
    58.00  0.74137    
    59.00  0.72518    
    60.00  0.70942    
    61.00  0.69407    
    62.00  0.67913    
    63.00  0.66459    
    64.00  0.65046    
    65.00  0.63673    
    66.00  0.62339    
    67.00  0.61045    
    68.00  0.59789    
    69.00  0.58573    
    70.00  0.57395    
    71.00  0.56255    
    72.00  0.55154    
    73.00  0.54090    
    74.00  0.53064    
    75.00  0.52075    
    76.00  0.51123    
    77.00  0.50207    
    78.00  0.49329    
    79.00  0.48486    
    80.00  0.47679    
    81.00  0.46907    
    82.00  0.46170    
    83.00  0.45468    
    84.00  0.44800    
    85.00  0.44166    
    86.00  0.43565    
    87.00  0.42997    
    88.00  0.42461    
    89.00  0.41957    
    90.00  0.41485    
    91.00  0.41043    
    92.00  0.40632    
    93.00  0.40251    
    94.00  0.39899    
    95.00  0.39576    
    96.00  0.39281    
    97.00  0.39013    
    98.00  0.38772    
    99.00  0.38558    
   100.00  0.38369    
   101.00  0.38206    
   102.00  0.38066    
   103.00  0.37951    
   104.00  0.37859    
   105.00  0.37789    
   106.00  0.37741    
   107.00  0.37714    
   108.00  0.37708    
   109.00  0.37721    
   110.00  0.37754    
   111.00  0.37805    
   112.00  0.37874    
   113.00  0.37960    
   114.00  0.38062    
   115.00  0.38181    
   116.00  0.38314    
   117.00  0.38462    
   118.00  0.38623    
   119.00  0.38798    
   120.00  0.38985    
   121.00  0.39183    
   122.00  0.39393    
   123.00  0.39614    
   124.00  0.39844    
   125.00  0.40084    
   126.00  0.40332    
   127.00  0.40588    
   128.00  0.40852    
   129.00  0.41123    
   130.00  0.41400    
   131.00  0.41683    
   132.00  0.41971    
   133.00  0.42265    
   134.00  0.42563    
   135.00  0.42865    
   136.00  0.43170    
   137.00  0.43480    
   138.00  0.43792    
   139.00  0.44108    
   140.00  0.44427    
   141.00  0.44748    
   142.00  0.45072    
   143.00  0.45399    
   144.00  0.45728    
   145.00  0.46059    
   146.00  0.46392    
   147.00  0.46727    
   148.00  0.47063    
   149.00  0.47399    
   150.00  0.47733    
   151.00  0.48065    
   152.00  0.48391    
   153.00  0.48709    
   154.00  0.49015    
   155.00  0.49308    
   156.00  0.49582    
   157.00  0.49834    
   158.00  0.50061    
   159.00  0.50261    
   160.00  0.50431    
   161.00  0.50572    
   162.00  0.50685    
   163.00  0.50773    
   164.00  0.50843    
   165.00  0.50902    
   166.00  0.50957    
   167.00  0.51018    
   168.00  0.51095    
   169.00  0.51193    
   170.00  0.51320    
   171.00  0.51476    
   172.00  0.51661    
   173.00  0.51869    
   174.00  0.52091    
   175.00  0.52314    
   176.00  0.52526    
   177.00  0.52709    
   178.00  0.52852    
   179.00  0.52943    
   180.00  0.52974    
 |--------|------------|
0.430000     micron = Wavelength
0.260593     = Extinction efficiency (Q)
0.928187E-01 = Scattering efficiency (Qs)
0.167774     = Absorption efficiency (Qa)
 66.6003     = Lidar ratio
0.352420E-02 micron^2 = <b> = Average surface area per particle
0.918380E-03 microns^2 = Extinction cross section (C)
0.327111E-03 microns^2 = Scattering cross section (Cs)
0.591269E-03 microns^2 = Absorption cross section (Ca)
 |----------------------------------------------------|
 | COMMENTAIRES:                                      |
 |----------------------------------------------------|
 |   -Cross section / <b> should = efficiency         |
 |    is independant of the normalisation of dN/dx    |
 |   -The integral of the phase fct / 4 pi over all   |
 |    directions (solid angle) = 1.                   |
 |   -The volume coefficient (k) is equal to C * N    |
 |      = cross section * Number density              |
 |      typical units: [um^2]*[particles/cm^3] =      |
 |      [10^-3 km-1]                                  |
 |      N = M/(d*4/3*pi*r^3) where d is the density   |
 |      of particle, M is the mass per unit volume    |
 |      and 4/3*pi*r^3 is the average volume  of a    |
 |      particle.                                     |
 |      typical units:  M -> [ug/m^3], d -> [g/cm^3]  |
 |                      r -> [um]                     |
 |      Lidar ratio= 4 pi Qe / phase_fct(180)*Qs      |
 |----------------------------------------------------|
