 |--------|------------|
 | ANGLE  |  PHASE FCT |
 |--------|------------|
     0.00   67.448    
     1.00   66.407    
     2.00   63.428    
     3.00   58.888    
     4.00   53.299    
     5.00   47.185    
     6.00   40.997    
     7.00   35.074    
     8.00   29.633    
     9.00   24.795    
    10.00   20.599    
    11.00   17.033    
    12.00   14.051    
    13.00   11.588    
    14.00   9.5755    
    15.00   7.9434    
    16.00   6.6281    
    17.00   5.5730    
    18.00   4.7286    
    19.00   4.0539    
    20.00   3.5146    
    21.00   3.0829    
    22.00   2.7363    
    23.00   2.4566    
    24.00   2.2296    
    25.00   2.0440    
    26.00   1.8908    
    27.00   1.7632    
    28.00   1.6555    
    29.00   1.5638    
    30.00   1.4845    
    31.00   1.4153    
    32.00   1.3540    
    33.00   1.2992    
    34.00   1.2496    
    35.00   1.2044    
    36.00   1.1627    
    37.00   1.1240    
    38.00   1.0879    
    39.00   1.0540    
    40.00   1.0220    
    41.00  0.99160    
    42.00  0.96272    
    43.00  0.93518    
    44.00  0.90884    
    45.00  0.88361    
    46.00  0.85938    
    47.00  0.83611    
    48.00  0.81369    
    49.00  0.79210    
    50.00  0.77129    
    51.00  0.75121    
    52.00  0.73182    
    53.00  0.71310    
    54.00  0.69501    
    55.00  0.67752    
    56.00  0.66062    
    57.00  0.64427    
    58.00  0.62847    
    59.00  0.61319    
    60.00  0.59842    
    61.00  0.58414    
    62.00  0.57034    
    63.00  0.55700    
    64.00  0.54412    
    65.00  0.53167    
    66.00  0.51966    
    67.00  0.50807    
    68.00  0.49689    
    69.00  0.48611    
    70.00  0.47573    
    71.00  0.46573    
    72.00  0.45611    
    73.00  0.44686    
    74.00  0.43798    
    75.00  0.42945    
    76.00  0.42127    
    77.00  0.41344    
    78.00  0.40595    
    79.00  0.39879    
    80.00  0.39195    
    81.00  0.38544    
    82.00  0.37923    
    83.00  0.37334    
    84.00  0.36775    
    85.00  0.36246    
    86.00  0.35746    
    87.00  0.35275    
    88.00  0.34831    
    89.00  0.34416    
    90.00  0.34027    
    91.00  0.33664    
    92.00  0.33328    
    93.00  0.33017    
    94.00  0.32730    
    95.00  0.32468    
    96.00  0.32230    
    97.00  0.32014    
    98.00  0.31822    
    99.00  0.31651    
   100.00  0.31502    
   101.00  0.31373    
   102.00  0.31265    
   103.00  0.31177    
   104.00  0.31108    
   105.00  0.31058    
   106.00  0.31026    
   107.00  0.31011    
   108.00  0.31014    
   109.00  0.31033    
   110.00  0.31068    
   111.00  0.31118    
   112.00  0.31183    
   113.00  0.31262    
   114.00  0.31355    
   115.00  0.31461    
   116.00  0.31580    
   117.00  0.31710    
   118.00  0.31853    
   119.00  0.32006    
   120.00  0.32170    
   121.00  0.32344    
   122.00  0.32528    
   123.00  0.32720    
   124.00  0.32921    
   125.00  0.33131    
   126.00  0.33348    
   127.00  0.33572    
   128.00  0.33803    
   129.00  0.34040    
   130.00  0.34284    
   131.00  0.34534    
   132.00  0.34789    
   133.00  0.35049    
   134.00  0.35315    
   135.00  0.35586    
   136.00  0.35861    
   137.00  0.36142    
   138.00  0.36427    
   139.00  0.36717    
   140.00  0.37013    
   141.00  0.37313    
   142.00  0.37619    
   143.00  0.37929    
   144.00  0.38245    
   145.00  0.38566    
   146.00  0.38891    
   147.00  0.39220    
   148.00  0.39552    
   149.00  0.39884    
   150.00  0.40215    
   151.00  0.40542    
   152.00  0.40861    
   153.00  0.41169    
   154.00  0.41461    
   155.00  0.41732    
   156.00  0.41977    
   157.00  0.42190    
   158.00  0.42369    
   159.00  0.42508    
   160.00  0.42608    
   161.00  0.42668    
   162.00  0.42693    
   163.00  0.42687    
   164.00  0.42659    
   165.00  0.42621    
   166.00  0.42585    
   167.00  0.42564    
   168.00  0.42572    
   169.00  0.42618    
   170.00  0.42712    
   171.00  0.42856    
   172.00  0.43047    
   173.00  0.43279    
   174.00  0.43539    
   175.00  0.43808    
   176.00  0.44068    
   177.00  0.44298    
   178.00  0.44477    
   179.00  0.44592    
   180.00  0.44631    
 |--------|------------|
0.590000     micron = Wavelength
0.222192     = Extinction efficiency (Q)
0.772422E-01 = Scattering efficiency (Qs)
0.144950     = Absorption efficiency (Qa)
 80.9922     = Lidar ratio
0.513789E-02 micron^2 = <b> = Average surface area per particle
0.114160E-02 microns^2 = Extinction cross section (C)
0.396862E-03 microns^2 = Scattering cross section (Cs)
0.744734E-03 microns^2 = Absorption cross section (Ca)
 |----------------------------------------------------|
 | COMMENTAIRES:                                      |
 |----------------------------------------------------|
 |   -Cross section / <b> should = efficiency         |
 |    is independant of the normalisation of dN/dx    |
 |   -The integral of the phase fct / 4 pi over all   |
 |    directions (solid angle) = 1.                   |
 |   -The volume coefficient (k) is equal to C * N    |
 |      = cross section * Number density              |
 |      typical units: [um^2]*[particles/cm^3] =      |
 |      [10^-3 km-1]                                  |
 |      N = M/(d*4/3*pi*r^3) where d is the density   |
 |      of particle, M is the mass per unit volume    |
 |      and 4/3*pi*r^3 is the average volume  of a    |
 |      particle.                                     |
 |      typical units:  M -> [ug/m^3], d -> [g/cm^3]  |
 |                      r -> [um]                     |
 |      Lidar ratio= 4 pi Qe / phase_fct(180)*Qs      |
 |----------------------------------------------------|
