 |--------|------------|
 | ANGLE  |  PHASE FCT |
 |--------|------------|
     0.00   70.447    
     1.00   68.581    
     2.00   63.401    
     3.00   55.962    
     4.00   47.526    
     5.00   39.155    
     6.00   31.538    
     7.00   25.005    
     8.00   19.638    
     9.00   15.366    
    10.00   12.044    
    11.00   9.5047    
    12.00   7.5880    
    13.00   6.1530    
    14.00   5.0837    
    15.00   4.2877    
    16.00   3.6943    
    17.00   3.2497    
    18.00   2.9137    
    19.00   2.6570    
    20.00   2.4580    
    21.00   2.3012    
    22.00   2.1752    
    23.00   2.0718    
    24.00   1.9854    
    25.00   1.9115    
    26.00   1.8471    
    27.00   1.7899    
    28.00   1.7385    
    29.00   1.6915    
    30.00   1.6480    
    31.00   1.6074    
    32.00   1.5692    
    33.00   1.5329    
    34.00   1.4983    
    35.00   1.4651    
    36.00   1.4331    
    37.00   1.4021    
    38.00   1.3721    
    39.00   1.3429    
    40.00   1.3145    
    41.00   1.2867    
    42.00   1.2596    
    43.00   1.2330    
    44.00   1.2069    
    45.00   1.1814    
    46.00   1.1564    
    47.00   1.1318    
    48.00   1.1076    
    49.00   1.0839    
    50.00   1.0607    
    51.00   1.0378    
    52.00   1.0153    
    53.00  0.99331    
    54.00  0.97169    
    55.00  0.95047    
    56.00  0.92967    
    57.00  0.90929    
    58.00  0.88931    
    59.00  0.86976    
    60.00  0.85062    
    61.00  0.83191    
    62.00  0.81362    
    63.00  0.79576    
    64.00  0.77833    
    65.00  0.76134    
    66.00  0.74478    
    67.00  0.72865    
    68.00  0.71297    
    69.00  0.69772    
    70.00  0.68292    
    71.00  0.66855    
    72.00  0.65462    
    73.00  0.64114    
    74.00  0.62809    
    75.00  0.61549    
    76.00  0.60332    
    77.00  0.59158    
    78.00  0.58028    
    79.00  0.56941    
    80.00  0.55896    
    81.00  0.54894    
    82.00  0.53934    
    83.00  0.53015    
    84.00  0.52138    
    85.00  0.51301    
    86.00  0.50504    
    87.00  0.49748    
    88.00  0.49030    
    89.00  0.48350    
    90.00  0.47709    
    91.00  0.47104    
    92.00  0.46537    
    93.00  0.46005    
    94.00  0.45508    
    95.00  0.45046    
    96.00  0.44618    
    97.00  0.44223    
    98.00  0.43860    
    99.00  0.43528    
   100.00  0.43228    
   101.00  0.42957    
   102.00  0.42715    
   103.00  0.42502    
   104.00  0.42317    
   105.00  0.42158    
   106.00  0.42025    
   107.00  0.41917    
   108.00  0.41834    
   109.00  0.41773    
   110.00  0.41736    
   111.00  0.41720    
   112.00  0.41726    
   113.00  0.41752    
   114.00  0.41797    
   115.00  0.41860    
   116.00  0.41941    
   117.00  0.42040    
   118.00  0.42154    
   119.00  0.42284    
   120.00  0.42429    
   121.00  0.42587    
   122.00  0.42758    
   123.00  0.42942    
   124.00  0.43137    
   125.00  0.43343    
   126.00  0.43559    
   127.00  0.43785    
   128.00  0.44019    
   129.00  0.44261    
   130.00  0.44511    
   131.00  0.44767    
   132.00  0.45030    
   133.00  0.45297    
   134.00  0.45570    
   135.00  0.45847    
   136.00  0.46127    
   137.00  0.46411    
   138.00  0.46698    
   139.00  0.46986    
   140.00  0.47277    
   141.00  0.47569    
   142.00  0.47862    
   143.00  0.48156    
   144.00  0.48451    
   145.00  0.48746    
   146.00  0.49042    
   147.00  0.49337    
   148.00  0.49633    
   149.00  0.49928    
   150.00  0.50221    
   151.00  0.50513    
   152.00  0.50802    
   153.00  0.51088    
   154.00  0.51368    
   155.00  0.51640    
   156.00  0.51903    
   157.00  0.52153    
   158.00  0.52389    
   159.00  0.52608    
   160.00  0.52808    
   161.00  0.52986    
   162.00  0.53144    
   163.00  0.53282    
   164.00  0.53401    
   165.00  0.53505    
   166.00  0.53599    
   167.00  0.53688    
   168.00  0.53778    
   169.00  0.53874    
   170.00  0.53980    
   171.00  0.54100    
   172.00  0.54233    
   173.00  0.54378    
   174.00  0.54529    
   175.00  0.54680    
   176.00  0.54821    
   177.00  0.54944    
   178.00  0.55039    
   179.00  0.55100    
   180.00  0.55121    
 |--------|------------|
0.440000     micron = Wavelength
0.322519     = Extinction efficiency (Q)
0.125379     = Scattering efficiency (Qs)
0.197140     = Absorption efficiency (Qa)
 58.6443     = Lidar ratio
0.513789E-02 micron^2 = <b> = Average surface area per particle
0.165707E-02 microns^2 = Extinction cross section (C)
0.644182E-03 microns^2 = Scattering cross section (Cs)
0.101288E-02 microns^2 = Absorption cross section (Ca)
 |----------------------------------------------------|
 | COMMENTAIRES:                                      |
 |----------------------------------------------------|
 |   -Cross section / <b> should = efficiency         |
 |    is independant of the normalisation of dN/dx    |
 |   -The integral of the phase fct / 4 pi over all   |
 |    directions (solid angle) = 1.                   |
 |   -The volume coefficient (k) is equal to C * N    |
 |      = cross section * Number density              |
 |      typical units: [um^2]*[particles/cm^3] =      |
 |      [10^-3 km-1]                                  |
 |      N = M/(d*4/3*pi*r^3) where d is the density   |
 |      of particle, M is the mass per unit volume    |
 |      and 4/3*pi*r^3 is the average volume  of a    |
 |      particle.                                     |
 |      typical units:  M -> [ug/m^3], d -> [g/cm^3]  |
 |                      r -> [um]                     |
 |      Lidar ratio= 4 pi Qe / phase_fct(180)*Qs      |
 |----------------------------------------------------|
