 |--------|------------|
 | ANGLE  |  PHASE FCT |
 |--------|------------|
     0.00   69.408    
     1.00   68.225    
     2.00   64.855    
     3.00   59.766    
     4.00   53.577    
     5.00   46.906    
     6.00   40.261    
     7.00   34.010    
     8.00   28.367    
     9.00   23.437    
    10.00   19.238    
    11.00   15.730    
    12.00   12.847    
    13.00   10.505    
    14.00   8.6223    
    15.00   7.1192    
    16.00   5.9261    
    17.00   4.9821    
    18.00   4.2367    
    19.00   3.6483    
    20.00   3.1830    
    21.00   2.8140    
    22.00   2.5199    
    23.00   2.2840    
    24.00   2.0932    
    25.00   1.9374    
    26.00   1.8087    
    27.00   1.7012    
    28.00   1.6101    
    29.00   1.5319    
    30.00   1.4638    
    31.00   1.4038    
    32.00   1.3502    
    33.00   1.3018    
    34.00   1.2576    
    35.00   1.2169    
    36.00   1.1791    
    37.00   1.1438    
    38.00   1.1105    
    39.00   1.0790    
    40.00   1.0491    
    41.00   1.0205    
    42.00  0.99326    
    43.00  0.96711    
    44.00  0.94198    
    45.00  0.91777    
    46.00  0.89444    
    47.00  0.87191    
    48.00  0.85014    
    49.00  0.82908    
    50.00  0.80870    
    51.00  0.78896    
    52.00  0.76983    
    53.00  0.75127    
    54.00  0.73329    
    55.00  0.71585    
    56.00  0.69894    
    57.00  0.68253    
    58.00  0.66661    
    59.00  0.65117    
    60.00  0.63620    
    61.00  0.62168    
    62.00  0.60762    
    63.00  0.59399    
    64.00  0.58079    
    65.00  0.56801    
    66.00  0.55564    
    67.00  0.54367    
    68.00  0.53211    
    69.00  0.52093    
    70.00  0.51015    
    71.00  0.49974    
    72.00  0.48971    
    73.00  0.48005    
    74.00  0.47076    
    75.00  0.46182    
    76.00  0.45324    
    77.00  0.44501    
    78.00  0.43712    
    79.00  0.42958    
    80.00  0.42236    
    81.00  0.41548    
    82.00  0.40893    
    83.00  0.40269    
    84.00  0.39677    
    85.00  0.39116    
    86.00  0.38585    
    87.00  0.38084    
    88.00  0.37613    
    89.00  0.37171    
    90.00  0.36758    
    91.00  0.36372    
    92.00  0.36014    
    93.00  0.35682    
    94.00  0.35377    
    95.00  0.35098    
    96.00  0.34844    
    97.00  0.34615    
    98.00  0.34409    
    99.00  0.34227    
   100.00  0.34068    
   101.00  0.33932    
   102.00  0.33817    
   103.00  0.33724    
   104.00  0.33651    
   105.00  0.33598    
   106.00  0.33564    
   107.00  0.33550    
   108.00  0.33553    
   109.00  0.33574    
   110.00  0.33612    
   111.00  0.33667    
   112.00  0.33738    
   113.00  0.33823    
   114.00  0.33924    
   115.00  0.34038    
   116.00  0.34166    
   117.00  0.34307    
   118.00  0.34460    
   119.00  0.34625    
   120.00  0.34801    
   121.00  0.34988    
   122.00  0.35184    
   123.00  0.35391    
   124.00  0.35606    
   125.00  0.35829    
   126.00  0.36061    
   127.00  0.36300    
   128.00  0.36546    
   129.00  0.36799    
   130.00  0.37057    
   131.00  0.37322    
   132.00  0.37592    
   133.00  0.37867    
   134.00  0.38146    
   135.00  0.38430    
   136.00  0.38719    
   137.00  0.39012    
   138.00  0.39308    
   139.00  0.39609    
   140.00  0.39914    
   141.00  0.40223    
   142.00  0.40537    
   143.00  0.40854    
   144.00  0.41175    
   145.00  0.41501    
   146.00  0.41830    
   147.00  0.42163    
   148.00  0.42497    
   149.00  0.42833    
   150.00  0.43168    
   151.00  0.43501    
   152.00  0.43827    
   153.00  0.44144    
   154.00  0.44448    
   155.00  0.44734    
   156.00  0.44998    
   157.00  0.45234    
   158.00  0.45439    
   159.00  0.45609    
   160.00  0.45743    
   161.00  0.45839    
   162.00  0.45901    
   163.00  0.45933    
   164.00  0.45942    
   165.00  0.45938    
   166.00  0.45933    
   167.00  0.45937    
   168.00  0.45964    
   169.00  0.46024    
   170.00  0.46123    
   171.00  0.46266    
   172.00  0.46451    
   173.00  0.46671    
   174.00  0.46916    
   175.00  0.47169    
   176.00  0.47412    
   177.00  0.47626    
   178.00  0.47794    
   179.00  0.47901    
   180.00  0.47938    
 |--------|------------|
0.560000     micron = Wavelength
0.234856     = Extinction efficiency (Q)
0.822292E-01 = Scattering efficiency (Qs)
0.152627     = Absorption efficiency (Qa)
 74.8700     = Lidar ratio
0.513788E-02 micron^2 = <b> = Average surface area per particle
0.120666E-02 microns^2 = Extinction cross section (C)
0.422484E-03 microns^2 = Scattering cross section (Cs)
0.784179E-03 microns^2 = Absorption cross section (Ca)
 |----------------------------------------------------|
 | COMMENTAIRES:                                      |
 |----------------------------------------------------|
 |   -Cross section / <b> should = efficiency         |
 |    is independant of the normalisation of dN/dx    |
 |   -The integral of the phase fct / 4 pi over all   |
 |    directions (solid angle) = 1.                   |
 |   -The volume coefficient (k) is equal to C * N    |
 |      = cross section * Number density              |
 |      typical units: [um^2]*[particles/cm^3] =      |
 |      [10^-3 km-1]                                  |
 |      N = M/(d*4/3*pi*r^3) where d is the density   |
 |      of particle, M is the mass per unit volume    |
 |      and 4/3*pi*r^3 is the average volume  of a    |
 |      particle.                                     |
 |      typical units:  M -> [ug/m^3], d -> [g/cm^3]  |
 |                      r -> [um]                     |
 |      Lidar ratio= 4 pi Qe / phase_fct(180)*Qs      |
 |----------------------------------------------------|
