 |--------|------------|
 | ANGLE  |  PHASE FCT |
 |--------|------------|
     0.00   68.847    
     1.00   67.392    
     2.00   63.290    
     3.00   57.235    
     4.00   50.096    
     5.00   42.678    
     6.00   35.586    
     7.00   29.185    
     8.00   23.652    
     9.00   19.020    
    10.00   15.237    
    11.00   12.206    
    12.00   9.8126    
    13.00   7.9428    
    14.00   6.4937    
    15.00   5.3768    
    16.00   4.5180    
    17.00   3.8583    
    18.00   3.3506    
    19.00   2.9585    
    20.00   2.6536    
    21.00   2.4146    
    22.00   2.2253    
    23.00   2.0734    
    24.00   1.9498    
    25.00   1.8476    
    26.00   1.7617    
    27.00   1.6883    
    28.00   1.6245    
    29.00   1.5682    
    30.00   1.5178    
    31.00   1.4721    
    32.00   1.4301    
    33.00   1.3912    
    34.00   1.3548    
    35.00   1.3205    
    36.00   1.2880    
    37.00   1.2571    
    38.00   1.2274    
    39.00   1.1989    
    40.00   1.1715    
    41.00   1.1450    
    42.00   1.1193    
    43.00   1.0943    
    44.00   1.0701    
    45.00   1.0464    
    46.00   1.0234    
    47.00   1.0010    
    48.00  0.97911    
    49.00  0.95773    
    50.00  0.93684    
    51.00  0.91643    
    52.00  0.89648    
    53.00  0.87697    
    54.00  0.85791    
    55.00  0.83927    
    56.00  0.82107    
    57.00  0.80328    
    58.00  0.78591    
    59.00  0.76895    
    60.00  0.75239    
    61.00  0.73624    
    62.00  0.72050    
    63.00  0.70515    
    64.00  0.69021    
    65.00  0.67567    
    66.00  0.66153    
    67.00  0.64779    
    68.00  0.63444    
    69.00  0.62149    
    70.00  0.60894    
    71.00  0.59677    
    72.00  0.58501    
    73.00  0.57363    
    74.00  0.56264    
    75.00  0.55204    
    76.00  0.54182    
    77.00  0.53199    
    78.00  0.52254    
    79.00  0.51346    
    80.00  0.50476    
    81.00  0.49644    
    82.00  0.48848    
    83.00  0.48088    
    84.00  0.47365    
    85.00  0.46677    
    86.00  0.46024    
    87.00  0.45406    
    88.00  0.44823    
    89.00  0.44273    
    90.00  0.43757    
    91.00  0.43273    
    92.00  0.42821    
    93.00  0.42401    
    94.00  0.42012    
    95.00  0.41654    
    96.00  0.41325    
    97.00  0.41026    
    98.00  0.40755    
    99.00  0.40512    
   100.00  0.40297    
   101.00  0.40108    
   102.00  0.39944    
   103.00  0.39807    
   104.00  0.39693    
   105.00  0.39604    
   106.00  0.39537    
   107.00  0.39493    
   108.00  0.39471    
   109.00  0.39470    
   110.00  0.39489    
   111.00  0.39527    
   112.00  0.39585    
   113.00  0.39660    
   114.00  0.39753    
   115.00  0.39863    
   116.00  0.39989    
   117.00  0.40129    
   118.00  0.40285    
   119.00  0.40454    
   120.00  0.40636    
   121.00  0.40831    
   122.00  0.41038    
   123.00  0.41255    
   124.00  0.41483    
   125.00  0.41721    
   126.00  0.41968    
   127.00  0.42223    
   128.00  0.42486    
   129.00  0.42756    
   130.00  0.43033    
   131.00  0.43316    
   132.00  0.43605    
   133.00  0.43898    
   134.00  0.44197    
   135.00  0.44499    
   136.00  0.44804    
   137.00  0.45113    
   138.00  0.45425    
   139.00  0.45740    
   140.00  0.46057    
   141.00  0.46376    
   142.00  0.46697    
   143.00  0.47020    
   144.00  0.47345    
   145.00  0.47671    
   146.00  0.47999    
   147.00  0.48328    
   148.00  0.48658    
   149.00  0.48987    
   150.00  0.49315    
   151.00  0.49640    
   152.00  0.49960    
   153.00  0.50274    
   154.00  0.50579    
   155.00  0.50871    
   156.00  0.51147    
   157.00  0.51405    
   158.00  0.51641    
   159.00  0.51853    
   160.00  0.52038    
   161.00  0.52197    
   162.00  0.52330    
   163.00  0.52440    
   164.00  0.52532    
   165.00  0.52611    
   166.00  0.52685    
   167.00  0.52762    
   168.00  0.52849    
   169.00  0.52953    
   170.00  0.53079    
   171.00  0.53229    
   172.00  0.53403    
   173.00  0.53595    
   174.00  0.53798    
   175.00  0.54001    
   176.00  0.54192    
   177.00  0.54358    
   178.00  0.54486    
   179.00  0.54568    
   180.00  0.54596    
 |--------|------------|
0.410000     micron = Wavelength
0.277078     = Extinction efficiency (Q)
0.100958     = Scattering efficiency (Qs)
0.176120     = Absorption efficiency (Qa)
 63.1703     = Lidar ratio
0.352420E-02 micron^2 = <b> = Average surface area per particle
0.976477E-03 microns^2 = Extinction cross section (C)
0.355795E-03 microns^2 = Scattering cross section (Cs)
0.620683E-03 microns^2 = Absorption cross section (Ca)
 |----------------------------------------------------|
 | COMMENTAIRES:                                      |
 |----------------------------------------------------|
 |   -Cross section / <b> should = efficiency         |
 |    is independant of the normalisation of dN/dx    |
 |   -The integral of the phase fct / 4 pi over all   |
 |    directions (solid angle) = 1.                   |
 |   -The volume coefficient (k) is equal to C * N    |
 |      = cross section * Number density              |
 |      typical units: [um^2]*[particles/cm^3] =      |
 |      [10^-3 km-1]                                  |
 |      N = M/(d*4/3*pi*r^3) where d is the density   |
 |      of particle, M is the mass per unit volume    |
 |      and 4/3*pi*r^3 is the average volume  of a    |
 |      particle.                                     |
 |      typical units:  M -> [ug/m^3], d -> [g/cm^3]  |
 |                      r -> [um]                     |
 |      Lidar ratio= 4 pi Qe / phase_fct(180)*Qs      |
 |----------------------------------------------------|
