 |--------|------------|
 | ANGLE  |  PHASE FCT |
 |--------|------------|
     0.00   124.59    
     1.00   113.22    
     2.00   85.388    
     3.00   54.579    
     4.00   31.314    
     5.00   17.983    
     6.00   11.495    
     7.00   8.3026    
     8.00   6.5875    
     9.00   5.6716    
    10.00   5.1651    
    11.00   4.8236    
    12.00   4.5726    
    13.00   4.3914    
    14.00   4.2454    
    15.00   4.1154    
    16.00   4.0032    
    17.00   3.9050    
    18.00   3.8123    
    19.00   3.7242    
    20.00   3.6420    
    21.00   3.5628    
    22.00   3.4845    
    23.00   3.4082    
    24.00   3.3337    
    25.00   3.2595    
    26.00   3.1857    
    27.00   3.1128    
    28.00   3.0404    
    29.00   2.9681    
    30.00   2.8963    
    31.00   2.8251    
    32.00   2.7542    
    33.00   2.6837    
    34.00   2.6138    
    35.00   2.5445    
    36.00   2.4759    
    37.00   2.4079    
    38.00   2.3408    
    39.00   2.2744    
    40.00   2.2089    
    41.00   2.1444    
    42.00   2.0809    
    43.00   2.0184    
    44.00   1.9570    
    45.00   1.8968    
    46.00   1.8377    
    47.00   1.7798    
    48.00   1.7231    
    49.00   1.6676    
    50.00   1.6135    
    51.00   1.5606    
    52.00   1.5090    
    53.00   1.4588    
    54.00   1.4099    
    55.00   1.3622    
    56.00   1.3159    
    57.00   1.2709    
    58.00   1.2273    
    59.00   1.1849    
    60.00   1.1439    
    61.00   1.1041    
    62.00   1.0656    
    63.00   1.0284    
    64.00  0.99236    
    65.00  0.95757    
    66.00  0.92398    
    67.00  0.89156    
    68.00  0.86029    
    69.00  0.83016    
    70.00  0.80113    
    71.00  0.77317    
    72.00  0.74628    
    73.00  0.72041    
    74.00  0.69555    
    75.00  0.67166    
    76.00  0.64872    
    77.00  0.62670    
    78.00  0.60558    
    79.00  0.58533    
    80.00  0.56592    
    81.00  0.54733    
    82.00  0.52953    
    83.00  0.51249    
    84.00  0.49619    
    85.00  0.48062    
    86.00  0.46573    
    87.00  0.45150    
    88.00  0.43793    
    89.00  0.42497    
    90.00  0.41261    
    91.00  0.40084    
    92.00  0.38961    
    93.00  0.37892    
    94.00  0.36875    
    95.00  0.35908    
    96.00  0.34987    
    97.00  0.34113    
    98.00  0.33283    
    99.00  0.32496    
   100.00  0.31749    
   101.00  0.31041    
   102.00  0.30371    
   103.00  0.29736    
   104.00  0.29137    
   105.00  0.28571    
   106.00  0.28036    
   107.00  0.27532    
   108.00  0.27058    
   109.00  0.26611    
   110.00  0.26192    
   111.00  0.25799    
   112.00  0.25430    
   113.00  0.25085    
   114.00  0.24763    
   115.00  0.24463    
   116.00  0.24184    
   117.00  0.23925    
   118.00  0.23685    
   119.00  0.23463    
   120.00  0.23260    
   121.00  0.23073    
   122.00  0.22902    
   123.00  0.22747    
   124.00  0.22606    
   125.00  0.22480    
   126.00  0.22367    
   127.00  0.22267    
   128.00  0.22180    
   129.00  0.22104    
   130.00  0.22039    
   131.00  0.21985    
   132.00  0.21942    
   133.00  0.21908    
   134.00  0.21883    
   135.00  0.21867    
   136.00  0.21859    
   137.00  0.21858    
   138.00  0.21866    
   139.00  0.21880    
   140.00  0.21900    
   141.00  0.21927    
   142.00  0.21959    
   143.00  0.21996    
   144.00  0.22039    
   145.00  0.22085    
   146.00  0.22136    
   147.00  0.22191    
   148.00  0.22248    
   149.00  0.22309    
   150.00  0.22372    
   151.00  0.22437    
   152.00  0.22504    
   153.00  0.22573    
   154.00  0.22643    
   155.00  0.22713    
   156.00  0.22785    
   157.00  0.22856    
   158.00  0.22927    
   159.00  0.22998    
   160.00  0.23067    
   161.00  0.23136    
   162.00  0.23203    
   163.00  0.23268    
   164.00  0.23331    
   165.00  0.23392    
   166.00  0.23449    
   167.00  0.23504    
   168.00  0.23555    
   169.00  0.23603    
   170.00  0.23647    
   171.00  0.23689    
   172.00  0.23726    
   173.00  0.23760    
   174.00  0.23790    
   175.00  0.23816    
   176.00  0.23839    
   177.00  0.23856    
   178.00  0.23869    
   179.00  0.23877    
   180.00  0.23880    
 |--------|------------|
0.460000     micron = Wavelength
0.879453     = Extinction efficiency (Q)
0.486774     = Scattering efficiency (Qs)
0.392679     = Absorption efficiency (Qa)
 95.0744     = Lidar ratio
0.199356E-01 micron^2 = <b> = Average surface area per particle
0.175324E-01 microns^2 = Extinction cross section (C)
0.970411E-02 microns^2 = Scattering cross section (Cs)
0.782828E-02 microns^2 = Absorption cross section (Ca)
 |----------------------------------------------------|
 | COMMENTAIRES:                                      |
 |----------------------------------------------------|
 |   -Cross section / <b> should = efficiency         |
 |    is independant of the normalisation of dN/dx    |
 |   -The integral of the phase fct / 4 pi over all   |
 |    directions (solid angle) = 1.                   |
 |   -The volume coefficient (k) is equal to C * N    |
 |      = cross section * Number density              |
 |      typical units: [um^2]*[particles/cm^3] =      |
 |      [10^-3 km-1]                                  |
 |      N = M/(d*4/3*pi*r^3) where d is the density   |
 |      of particle, M is the mass per unit volume    |
 |      and 4/3*pi*r^3 is the average volume  of a    |
 |      particle.                                     |
 |      typical units:  M -> [ug/m^3], d -> [g/cm^3]  |
 |                      r -> [um]                     |
 |      Lidar ratio= 4 pi Qe / phase_fct(180)*Qs      |
 |----------------------------------------------------|
