 |--------|------------|
 | ANGLE  |  PHASE FCT |
 |--------|------------|
     0.00   45.841    
     1.00   45.440    
     2.00   44.270    
     3.00   42.419    
     4.00   40.017    
     5.00   37.215    
     6.00   34.165    
     7.00   31.009    
     8.00   27.863    
     9.00   24.824    
    10.00   21.955    
    11.00   19.301    
    12.00   16.886    
    13.00   14.718    
    14.00   12.795    
    15.00   11.106    
    16.00   9.6343    
    17.00   8.3603    
    18.00   7.2640    
    19.00   6.3248    
    20.00   5.5234    
    21.00   4.8414    
    22.00   4.2620    
    23.00   3.7706    
    24.00   3.3539    
    25.00   3.0004    
    26.00   2.7003    
    27.00   2.4450    
    28.00   2.2273    
    29.00   2.0411    
    30.00   1.8812    
    31.00   1.7433    
    32.00   1.6236    
    33.00   1.5194    
    34.00   1.4279    
    35.00   1.3471    
    36.00   1.2754    
    37.00   1.2112    
    38.00   1.1534    
    39.00   1.1010    
    40.00   1.0532    
    41.00   1.0094    
    42.00  0.96901    
    43.00  0.93154    
    44.00  0.89663    
    45.00  0.86398    
    46.00  0.83332    
    47.00  0.80443    
    48.00  0.77714    
    49.00  0.75129    
    50.00  0.72674    
    51.00  0.70338    
    52.00  0.68113    
    53.00  0.65989    
    54.00  0.63961    
    55.00  0.62020    
    56.00  0.60163    
    57.00  0.58385    
    58.00  0.56680    
    59.00  0.55045    
    60.00  0.53478    
    61.00  0.51973    
    62.00  0.50531    
    63.00  0.49145    
    64.00  0.47816    
    65.00  0.46540    
    66.00  0.45316    
    67.00  0.44140    
    68.00  0.43013    
    69.00  0.41931    
    70.00  0.40894    
    71.00  0.39900    
    72.00  0.38946    
    73.00  0.38033    
    74.00  0.37159    
    75.00  0.36322    
    76.00  0.35522    
    77.00  0.34756    
    78.00  0.34025    
    79.00  0.33327    
    80.00  0.32661    
    81.00  0.32026    
    82.00  0.31422    
    83.00  0.30847    
    84.00  0.30301    
    85.00  0.29782    
    86.00  0.29291    
    87.00  0.28826    
    88.00  0.28387    
    89.00  0.27972    
    90.00  0.27582    
    91.00  0.27215    
    92.00  0.26872    
    93.00  0.26550    
    94.00  0.26250    
    95.00  0.25972    
    96.00  0.25714    
    97.00  0.25475    
    98.00  0.25257    
    99.00  0.25057    
   100.00  0.24875    
   101.00  0.24712    
   102.00  0.24565    
   103.00  0.24436    
   104.00  0.24323    
   105.00  0.24226    
   106.00  0.24144    
   107.00  0.24077    
   108.00  0.24025    
   109.00  0.23987    
   110.00  0.23962    
   111.00  0.23951    
   112.00  0.23953    
   113.00  0.23968    
   114.00  0.23995    
   115.00  0.24033    
   116.00  0.24083    
   117.00  0.24145    
   118.00  0.24217    
   119.00  0.24300    
   120.00  0.24394    
   121.00  0.24498    
   122.00  0.24612    
   123.00  0.24737    
   124.00  0.24871    
   125.00  0.25015    
   126.00  0.25169    
   127.00  0.25332    
   128.00  0.25505    
   129.00  0.25689    
   130.00  0.25881    
   131.00  0.26084    
   132.00  0.26297    
   133.00  0.26520    
   134.00  0.26753    
   135.00  0.26996    
   136.00  0.27248    
   137.00  0.27510    
   138.00  0.27781    
   139.00  0.28061    
   140.00  0.28347    
   141.00  0.28640    
   142.00  0.28937    
   143.00  0.29237    
   144.00  0.29537    
   145.00  0.29834    
   146.00  0.30125    
   147.00  0.30406    
   148.00  0.30673    
   149.00  0.30922    
   150.00  0.31148    
   151.00  0.31346    
   152.00  0.31514    
   153.00  0.31647    
   154.00  0.31743    
   155.00  0.31801    
   156.00  0.31822    
   157.00  0.31808    
   158.00  0.31764    
   159.00  0.31697    
   160.00  0.31615    
   161.00  0.31530    
   162.00  0.31455    
   163.00  0.31404    
   164.00  0.31390    
   165.00  0.31427    
   166.00  0.31526    
   167.00  0.31696    
   168.00  0.31942    
   169.00  0.32265    
   170.00  0.32659    
   171.00  0.33114    
   172.00  0.33616    
   173.00  0.34144    
   174.00  0.34675    
   175.00  0.35183    
   176.00  0.35643    
   177.00  0.36031    
   178.00  0.36325    
   179.00  0.36508    
   180.00  0.36570    
 |--------|------------|
0.546000     micron = Wavelength
0.178736     = Extinction efficiency (Q)
0.646389E-01 = Scattering efficiency (Qs)
0.114097     = Absorption efficiency (Qa)
 95.0174     = Lidar ratio
0.259481E-02 micron^2 = <b> = Average surface area per particle
0.463785E-03 microns^2 = Extinction cross section (C)
0.167726E-03 microns^2 = Scattering cross section (Cs)
0.296060E-03 microns^2 = Absorption cross section (Ca)
 |----------------------------------------------------|
 | COMMENTAIRES:                                      |
 |----------------------------------------------------|
 |   -Cross section / <b> should = efficiency         |
 |    is independant of the normalisation of dN/dx    |
 |   -The integral of the phase fct / 4 pi over all   |
 |    directions (solid angle) = 1.                   |
 |   -The volume coefficient (k) is equal to C * N    |
 |      = cross section * Number density              |
 |      typical units: [um^2]*[particles/cm^3] =      |
 |      [10^-3 km-1]                                  |
 |      N = M/(d*4/3*pi*r^3) where d is the density   |
 |      of particle, M is the mass per unit volume    |
 |      and 4/3*pi*r^3 is the average volume  of a    |
 |      particle.                                     |
 |      typical units:  M -> [ug/m^3], d -> [g/cm^3]  |
 |                      r -> [um]                     |
 |      Lidar ratio= 4 pi Qe / phase_fct(180)*Qs      |
 |----------------------------------------------------|
