 |--------|------------|
 | ANGLE  |  PHASE FCT |
 |--------|------------|
     0.00   77.738    
     1.00   75.744    
     2.00   70.194    
     3.00   62.185    
     4.00   53.042    
     5.00   43.898    
     6.00   35.506    
     7.00   28.248    
     8.00   22.232    
     9.00   17.403    
    10.00   13.619    
    11.00   10.705    
    12.00   8.4887    
    13.00   6.8191    
    14.00   5.5680    
    15.00   4.6327    
    16.00   3.9330    
    17.00   3.4078    
    18.00   3.0111    
    19.00   2.7086    
    20.00   2.4751    
    21.00   2.2923    
    22.00   2.1466    
    23.00   2.0284    
    24.00   1.9306    
    25.00   1.8481    
    26.00   1.7771    
    27.00   1.7150    
    28.00   1.6597    
    29.00   1.6098    
    30.00   1.5641    
    31.00   1.5219    
    32.00   1.4825    
    33.00   1.4454    
    34.00   1.4103    
    35.00   1.3769    
    36.00   1.3449    
    37.00   1.3142    
    38.00   1.2846    
    39.00   1.2559    
    40.00   1.2281    
    41.00   1.2011    
    42.00   1.1749    
    43.00   1.1492    
    44.00   1.1243    
    45.00   1.0998    
    46.00   1.0760    
    47.00   1.0526    
    48.00   1.0297    
    49.00   1.0073    
    50.00  0.98535    
    51.00  0.96385    
    52.00  0.94279    
    53.00  0.92216    
    54.00  0.90195    
    55.00  0.88217    
    56.00  0.86281    
    57.00  0.84385    
    58.00  0.82531    
    59.00  0.80720    
    60.00  0.78949    
    61.00  0.77219    
    62.00  0.75531    
    63.00  0.73885    
    64.00  0.72280    
    65.00  0.70716    
    66.00  0.69194    
    67.00  0.67714    
    68.00  0.66276    
    69.00  0.64879    
    70.00  0.63524    
    71.00  0.62210    
    72.00  0.60938    
    73.00  0.59708    
    74.00  0.58518    
    75.00  0.57369    
    76.00  0.56262    
    77.00  0.55195    
    78.00  0.54168    
    79.00  0.53182    
    80.00  0.52235    
    81.00  0.51328    
    82.00  0.50459    
    83.00  0.49630    
    84.00  0.48838    
    85.00  0.48085    
    86.00  0.47368    
    87.00  0.46689    
    88.00  0.46046    
    89.00  0.45438    
    90.00  0.44866    
    91.00  0.44328    
    92.00  0.43824    
    93.00  0.43353    
    94.00  0.42915    
    95.00  0.42509    
    96.00  0.42134    
    97.00  0.41790    
    98.00  0.41477    
    99.00  0.41192    
   100.00  0.40936    
   101.00  0.40707    
   102.00  0.40506    
   103.00  0.40331    
   104.00  0.40181    
   105.00  0.40057    
   106.00  0.39956    
   107.00  0.39879    
   108.00  0.39824    
   109.00  0.39791    
   110.00  0.39779    
   111.00  0.39788    
   112.00  0.39815    
   113.00  0.39862    
   114.00  0.39926    
   115.00  0.40008    
   116.00  0.40106    
   117.00  0.40220    
   118.00  0.40349    
   119.00  0.40493    
   120.00  0.40649    
   121.00  0.40819    
   122.00  0.41001    
   123.00  0.41194    
   124.00  0.41397    
   125.00  0.41611    
   126.00  0.41834    
   127.00  0.42066    
   128.00  0.42306    
   129.00  0.42553    
   130.00  0.42807    
   131.00  0.43067    
   132.00  0.43333    
   133.00  0.43603    
   134.00  0.43878    
   135.00  0.44157    
   136.00  0.44439    
   137.00  0.44724    
   138.00  0.45012    
   139.00  0.45302    
   140.00  0.45593    
   141.00  0.45886    
   142.00  0.46180    
   143.00  0.46475    
   144.00  0.46771    
   145.00  0.47068    
   146.00  0.47366    
   147.00  0.47664    
   148.00  0.47963    
   149.00  0.48262    
   150.00  0.48561    
   151.00  0.48859    
   152.00  0.49155    
   153.00  0.49448    
   154.00  0.49737    
   155.00  0.50018    
   156.00  0.50290    
   157.00  0.50548    
   158.00  0.50790    
   159.00  0.51013    
   160.00  0.51214    
   161.00  0.51389    
   162.00  0.51539    
   163.00  0.51663    
   164.00  0.51765    
   165.00  0.51846    
   166.00  0.51914    
   167.00  0.51976    
   168.00  0.52038    
   169.00  0.52110    
   170.00  0.52196    
   171.00  0.52301    
   172.00  0.52427    
   173.00  0.52572    
   174.00  0.52731    
   175.00  0.52894    
   176.00  0.53051    
   177.00  0.53190    
   178.00  0.53299    
   179.00  0.53369    
   180.00  0.53393    
 |--------|------------|
0.546000     micron = Wavelength
0.299715     = Extinction efficiency (Q)
0.113598     = Scattering efficiency (Qs)
0.186118     = Absorption efficiency (Qa)
 62.0968     = Lidar ratio
0.730527E-02 micron^2 = <b> = Average surface area per particle
0.218950E-02 microns^2 = Extinction cross section (C)
0.829861E-03 microns^2 = Scattering cross section (Cs)
0.135964E-02 microns^2 = Absorption cross section (Ca)
 |----------------------------------------------------|
 | COMMENTAIRES:                                      |
 |----------------------------------------------------|
 |   -Cross section / <b> should = efficiency         |
 |    is independant of the normalisation of dN/dx    |
 |   -The integral of the phase fct / 4 pi over all   |
 |    directions (solid angle) = 1.                   |
 |   -The volume coefficient (k) is equal to C * N    |
 |      = cross section * Number density              |
 |      typical units: [um^2]*[particles/cm^3] =      |
 |      [10^-3 km-1]                                  |
 |      N = M/(d*4/3*pi*r^3) where d is the density   |
 |      of particle, M is the mass per unit volume    |
 |      and 4/3*pi*r^3 is the average volume  of a    |
 |      particle.                                     |
 |      typical units:  M -> [ug/m^3], d -> [g/cm^3]  |
 |                      r -> [um]                     |
 |      Lidar ratio= 4 pi Qe / phase_fct(180)*Qs      |
 |----------------------------------------------------|
