 |--------|------------|
 | ANGLE  |  PHASE FCT |
 |--------|------------|
     0.00   73.888    
     1.00   72.624    
     2.00   69.021    
     3.00   63.582    
     4.00   56.970    
     5.00   49.846    
     6.00   42.753    
     7.00   36.084    
     8.00   30.068    
     9.00   24.815    
    10.00   20.341    
    11.00   16.607    
    12.00   13.539    
    13.00   11.048    
    14.00   9.0467    
    15.00   7.4496    
    16.00   6.1823    
    17.00   5.1802    
    18.00   4.3891    
    19.00   3.7648    
    20.00   3.2714    
    21.00   2.8802    
    22.00   2.5686    
    23.00   2.3186    
    24.00   2.1166    
    25.00   1.9517    
    26.00   1.8156    
    27.00   1.7018    
    28.00   1.6055    
    29.00   1.5230    
    30.00   1.4512    
    31.00   1.3879    
    32.00   1.3316    
    33.00   1.2807    
    34.00   1.2344    
    35.00   1.1918    
    36.00   1.1523    
    37.00   1.1154    
    38.00   1.0808    
    39.00   1.0482    
    40.00   1.0172    
    41.00  0.98781    
    42.00  0.95974    
    43.00  0.93290    
    44.00  0.90719    
    45.00  0.88250    
    46.00  0.85877    
    47.00  0.83593    
    48.00  0.81391    
    49.00  0.79267    
    50.00  0.77218    
    51.00  0.75237    
    52.00  0.73324    
    53.00  0.71473    
    54.00  0.69684    
    55.00  0.67953    
    56.00  0.66278    
    57.00  0.64658    
    58.00  0.63090    
    59.00  0.61572    
    60.00  0.60103    
    61.00  0.58683    
    62.00  0.57308    
    63.00  0.55980    
    64.00  0.54695    
    65.00  0.53453    
    66.00  0.52254    
    67.00  0.51096    
    68.00  0.49978    
    69.00  0.48900    
    70.00  0.47861    
    71.00  0.46860    
    72.00  0.45897    
    73.00  0.44970    
    74.00  0.44079    
    75.00  0.43224    
    76.00  0.42404    
    77.00  0.41617    
    78.00  0.40865    
    79.00  0.40146    
    80.00  0.39459    
    81.00  0.38804    
    82.00  0.38181    
    83.00  0.37588    
    84.00  0.37026    
    85.00  0.36493    
    86.00  0.35990    
    87.00  0.35516    
    88.00  0.35069    
    89.00  0.34651    
    90.00  0.34259    
    91.00  0.33894    
    92.00  0.33555    
    93.00  0.33241    
    94.00  0.32953    
    95.00  0.32689    
    96.00  0.32448    
    97.00  0.32231    
    98.00  0.32037    
    99.00  0.31864    
   100.00  0.31713    
   101.00  0.31584    
   102.00  0.31474    
   103.00  0.31385    
   104.00  0.31315    
   105.00  0.31264    
   106.00  0.31231    
   107.00  0.31215    
   108.00  0.31217    
   109.00  0.31235    
   110.00  0.31269    
   111.00  0.31319    
   112.00  0.31383    
   113.00  0.31462    
   114.00  0.31554    
   115.00  0.31660    
   116.00  0.31778    
   117.00  0.31908    
   118.00  0.32050    
   119.00  0.32203    
   120.00  0.32366    
   121.00  0.32539    
   122.00  0.32722    
   123.00  0.32913    
   124.00  0.33113    
   125.00  0.33321    
   126.00  0.33537    
   127.00  0.33759    
   128.00  0.33988    
   129.00  0.34224    
   130.00  0.34465    
   131.00  0.34711    
   132.00  0.34963    
   133.00  0.35220    
   134.00  0.35481    
   135.00  0.35746    
   136.00  0.36016    
   137.00  0.36290    
   138.00  0.36567    
   139.00  0.36849    
   140.00  0.37135    
   141.00  0.37425    
   142.00  0.37720    
   143.00  0.38019    
   144.00  0.38322    
   145.00  0.38630    
   146.00  0.38942    
   147.00  0.39259    
   148.00  0.39578    
   149.00  0.39900    
   150.00  0.40223    
   151.00  0.40545    
   152.00  0.40862    
   153.00  0.41172    
   154.00  0.41470    
   155.00  0.41752    
   156.00  0.42012    
   157.00  0.42246    
   158.00  0.42448    
   159.00  0.42613    
   160.00  0.42739    
   161.00  0.42825    
   162.00  0.42872    
   163.00  0.42884    
   164.00  0.42867    
   165.00  0.42832    
   166.00  0.42789    
   167.00  0.42754    
   168.00  0.42738    
   169.00  0.42754    
   170.00  0.42812    
   171.00  0.42916    
   172.00  0.43068    
   173.00  0.43261    
   174.00  0.43484    
   175.00  0.43722    
   176.00  0.43956    
   177.00  0.44165    
   178.00  0.44330    
   179.00  0.44436    
   180.00  0.44473    
 |--------|------------|
0.680000     micron = Wavelength
0.230587     = Extinction efficiency (Q)
0.805658E-01 = Scattering efficiency (Qs)
0.150021     = Absorption efficiency (Qa)
 80.8723     = Lidar ratio
0.730527E-02 micron^2 = <b> = Average surface area per particle
0.168450E-02 microns^2 = Extinction cross section (C)
0.588555E-03 microns^2 = Scattering cross section (Cs)
0.109594E-02 microns^2 = Absorption cross section (Ca)
 |----------------------------------------------------|
 | COMMENTAIRES:                                      |
 |----------------------------------------------------|
 |   -Cross section / <b> should = efficiency         |
 |    is independant of the normalisation of dN/dx    |
 |   -The integral of the phase fct / 4 pi over all   |
 |    directions (solid angle) = 1.                   |
 |   -The volume coefficient (k) is equal to C * N    |
 |      = cross section * Number density              |
 |      typical units: [um^2]*[particles/cm^3] =      |
 |      [10^-3 km-1]                                  |
 |      N = M/(d*4/3*pi*r^3) where d is the density   |
 |      of particle, M is the mass per unit volume    |
 |      and 4/3*pi*r^3 is the average volume  of a    |
 |      particle.                                     |
 |      typical units:  M -> [ug/m^3], d -> [g/cm^3]  |
 |                      r -> [um]                     |
 |      Lidar ratio= 4 pi Qe / phase_fct(180)*Qs      |
 |----------------------------------------------------|
