 |--------|------------|
 | ANGLE  |  PHASE FCT |
 |--------|------------|
     0.00   57.521    
     1.00   56.869    
     2.00   54.978    
     3.00   52.031    
     4.00   48.287    
     5.00   44.031    
     6.00   39.535    
     7.00   35.027    
     8.00   30.686    
     9.00   26.633    
    10.00   22.941    
    11.00   19.646    
    12.00   16.753    
    13.00   14.247    
    14.00   12.100    
    15.00   10.278    
    16.00   8.7422    
    17.00   7.4559    
    18.00   6.3833    
    19.00   5.4922    
    20.00   4.7533    
    21.00   4.1414    
    22.00   3.6347    
    23.00   3.2148    
    24.00   2.8662    
    25.00   2.5758    
    26.00   2.3331    
    27.00   2.1292    
    28.00   1.9569    
    29.00   1.8104    
    30.00   1.6848    
    31.00   1.5763    
    32.00   1.4819    
    33.00   1.3990    
    34.00   1.3255    
    35.00   1.2598    
    36.00   1.2007    
    37.00   1.1471    
    38.00   1.0981    
    39.00   1.0529    
    40.00   1.0112    
    41.00  0.97236    
    42.00  0.93606    
    43.00  0.90199    
    44.00  0.86991    
    45.00  0.83961    
    46.00  0.81092    
    47.00  0.78368    
    48.00  0.75778    
    49.00  0.73311    
    50.00  0.70959    
    51.00  0.68713    
    52.00  0.66566    
    53.00  0.64513    
    54.00  0.62547    
    55.00  0.60665    
    56.00  0.58861    
    57.00  0.57132    
    58.00  0.55475    
    59.00  0.53885    
    60.00  0.52361    
    61.00  0.50898    
    62.00  0.49495    
    63.00  0.48148    
    64.00  0.46856    
    65.00  0.45617    
    66.00  0.44428    
    67.00  0.43288    
    68.00  0.42195    
    69.00  0.41148    
    70.00  0.40144    
    71.00  0.39182    
    72.00  0.38262    
    73.00  0.37381    
    74.00  0.36538    
    75.00  0.35732    
    76.00  0.34962    
    77.00  0.34227    
    78.00  0.33526    
    79.00  0.32858    
    80.00  0.32222    
    81.00  0.31616    
    82.00  0.31041    
    83.00  0.30495    
    84.00  0.29978    
    85.00  0.29489    
    86.00  0.29026    
    87.00  0.28590    
    88.00  0.28179    
    89.00  0.27793    
    90.00  0.27431    
    91.00  0.27093    
    92.00  0.26777    
    93.00  0.26484    
    94.00  0.26213    
    95.00  0.25963    
    96.00  0.25733    
    97.00  0.25523    
    98.00  0.25333    
    99.00  0.25161    
   100.00  0.25008    
   101.00  0.24872    
   102.00  0.24754    
   103.00  0.24653    
   104.00  0.24568    
   105.00  0.24498    
   106.00  0.24444    
   107.00  0.24405    
   108.00  0.24380    
   109.00  0.24369    
   110.00  0.24371    
   111.00  0.24386    
   112.00  0.24414    
   113.00  0.24454    
   114.00  0.24505    
   115.00  0.24568    
   116.00  0.24642    
   117.00  0.24725    
   118.00  0.24820    
   119.00  0.24923    
   120.00  0.25036    
   121.00  0.25158    
   122.00  0.25289    
   123.00  0.25428    
   124.00  0.25575    
   125.00  0.25729    
   126.00  0.25892    
   127.00  0.26062    
   128.00  0.26239    
   129.00  0.26423    
   130.00  0.26614    
   131.00  0.26812    
   132.00  0.27017    
   133.00  0.27228    
   134.00  0.27447    
   135.00  0.27673    
   136.00  0.27906    
   137.00  0.28146    
   138.00  0.28393    
   139.00  0.28648    
   140.00  0.28911    
   141.00  0.29181    
   142.00  0.29457    
   143.00  0.29741    
   144.00  0.30030    
   145.00  0.30325    
   146.00  0.30623    
   147.00  0.30923    
   148.00  0.31222    
   149.00  0.31517    
   150.00  0.31805    
   151.00  0.32081    
   152.00  0.32342    
   153.00  0.32581    
   154.00  0.32794    
   155.00  0.32976    
   156.00  0.33121    
   157.00  0.33227    
   158.00  0.33292    
   159.00  0.33313    
   160.00  0.33295    
   161.00  0.33239    
   162.00  0.33154    
   163.00  0.33050    
   164.00  0.32937    
   165.00  0.32829    
   166.00  0.32742    
   167.00  0.32688    
   168.00  0.32680    
   169.00  0.32727    
   170.00  0.32834    
   171.00  0.33002    
   172.00  0.33225    
   173.00  0.33492    
   174.00  0.33786    
   175.00  0.34089    
   176.00  0.34378    
   177.00  0.34631    
   178.00  0.34828    
   179.00  0.34953    
   180.00  0.34995    
 |--------|------------|
0.569000     micron = Wavelength
0.195414     = Extinction efficiency (Q)
0.683564E-01 = Scattering efficiency (Qs)
0.127057     = Absorption efficiency (Qa)
 102.653     = Lidar ratio
0.352421E-02 micron^2 = <b> = Average surface area per particle
0.688679E-03 microns^2 = Extinction cross section (C)
0.240903E-03 microns^2 = Scattering cross section (Cs)
0.447777E-03 microns^2 = Absorption cross section (Ca)
 |----------------------------------------------------|
 | COMMENTAIRES:                                      |
 |----------------------------------------------------|
 |   -Cross section / <b> should = efficiency         |
 |    is independant of the normalisation of dN/dx    |
 |   -The integral of the phase fct / 4 pi over all   |
 |    directions (solid angle) = 1.                   |
 |   -The volume coefficient (k) is equal to C * N    |
 |      = cross section * Number density              |
 |      typical units: [um^2]*[particles/cm^3] =      |
 |      [10^-3 km-1]                                  |
 |      N = M/(d*4/3*pi*r^3) where d is the density   |
 |      of particle, M is the mass per unit volume    |
 |      and 4/3*pi*r^3 is the average volume  of a    |
 |      particle.                                     |
 |      typical units:  M -> [ug/m^3], d -> [g/cm^3]  |
 |                      r -> [um]                     |
 |      Lidar ratio= 4 pi Qe / phase_fct(180)*Qs      |
 |----------------------------------------------------|
