 |--------|------------|
 | ANGLE  |  PHASE FCT |
 |--------|------------|
     0.00   56.260    
     1.00   55.646    
     2.00   53.863    
     3.00   51.078    
     4.00   47.528    
     5.00   43.477    
     6.00   39.176    
     7.00   34.843    
     8.00   30.649    
     9.00   26.711    
    10.00   23.106    
    11.00   19.869    
    12.00   17.012    
    13.00   14.524    
    14.00   12.381    
    15.00   10.552    
    16.00   9.0023    
    17.00   7.6978    
    18.00   6.6046    
    19.00   5.6919    
    20.00   4.9316    
    21.00   4.2992    
    22.00   3.7733    
    23.00   3.3358    
    24.00   2.9712    
    25.00   2.6667    
    26.00   2.4114    
    27.00   2.1964    
    28.00   2.0144    
    29.00   1.8594    
    30.00   1.7265    
    31.00   1.6117    
    32.00   1.5118    
    33.00   1.4241    
    34.00   1.3465    
    35.00   1.2773    
    36.00   1.2151    
    37.00   1.1588    
    38.00   1.1074    
    39.00   1.0602    
    40.00   1.0166    
    41.00  0.97622    
    42.00  0.93852    
    43.00  0.90321    
    44.00  0.87003    
    45.00  0.83875    
    46.00  0.80919    
    47.00  0.78117    
    48.00  0.75457    
    49.00  0.72928    
    50.00  0.70520    
    51.00  0.68224    
    52.00  0.66032    
    53.00  0.63939    
    54.00  0.61938    
    55.00  0.60024    
    56.00  0.58192    
    57.00  0.56438    
    58.00  0.54758    
    59.00  0.53148    
    60.00  0.51606    
    61.00  0.50128    
    62.00  0.48711    
    63.00  0.47354    
    64.00  0.46052    
    65.00  0.44805    
    66.00  0.43610    
    67.00  0.42464    
    68.00  0.41366    
    69.00  0.40315    
    70.00  0.39309    
    71.00  0.38345    
    72.00  0.37423    
    73.00  0.36541    
    74.00  0.35698    
    75.00  0.34893    
    76.00  0.34123    
    77.00  0.33389    
    78.00  0.32689    
    79.00  0.32022    
    80.00  0.31387    
    81.00  0.30783    
    82.00  0.30210    
    83.00  0.29665    
    84.00  0.29149    
    85.00  0.28661    
    86.00  0.28199    
    87.00  0.27763    
    88.00  0.27353    
    89.00  0.26967    
    90.00  0.26606    
    91.00  0.26267    
    92.00  0.25951    
    93.00  0.25657    
    94.00  0.25385    
    95.00  0.25133    
    96.00  0.24902    
    97.00  0.24690    
    98.00  0.24497    
    99.00  0.24323    
   100.00  0.24166    
   101.00  0.24027    
   102.00  0.23905    
   103.00  0.23800    
   104.00  0.23710    
   105.00  0.23636    
   106.00  0.23577    
   107.00  0.23532    
   108.00  0.23501    
   109.00  0.23484    
   110.00  0.23480    
   111.00  0.23489    
   112.00  0.23510    
   113.00  0.23542    
   114.00  0.23586    
   115.00  0.23642    
   116.00  0.23707    
   117.00  0.23783    
   118.00  0.23869    
   119.00  0.23964    
   120.00  0.24069    
   121.00  0.24183    
   122.00  0.24304    
   123.00  0.24435    
   124.00  0.24573    
   125.00  0.24719    
   126.00  0.24873    
   127.00  0.25034    
   128.00  0.25203    
   129.00  0.25378    
   130.00  0.25561    
   131.00  0.25751    
   132.00  0.25948    
   133.00  0.26152    
   134.00  0.26363    
   135.00  0.26581    
   136.00  0.26807    
   137.00  0.27040    
   138.00  0.27281    
   139.00  0.27530    
   140.00  0.27786    
   141.00  0.28050    
   142.00  0.28321    
   143.00  0.28599    
   144.00  0.28882    
   145.00  0.29171    
   146.00  0.29462    
   147.00  0.29755    
   148.00  0.30047    
   149.00  0.30334    
   150.00  0.30613    
   151.00  0.30880    
   152.00  0.31130    
   153.00  0.31357    
   154.00  0.31557    
   155.00  0.31725    
   156.00  0.31857    
   157.00  0.31948    
   158.00  0.31996    
   159.00  0.32003    
   160.00  0.31968    
   161.00  0.31898    
   162.00  0.31800    
   163.00  0.31682    
   164.00  0.31558    
   165.00  0.31441    
   166.00  0.31345    
   167.00  0.31285    
   168.00  0.31272    
   169.00  0.31316    
   170.00  0.31421    
   171.00  0.31587    
   172.00  0.31809    
   173.00  0.32075    
   174.00  0.32370    
   175.00  0.32672    
   176.00  0.32961    
   177.00  0.33214    
   178.00  0.33410    
   179.00  0.33535    
   180.00  0.33578    
 |--------|------------|
0.580000     micron = Wavelength
0.192561     = Extinction efficiency (Q)
0.677575E-01 = Scattering efficiency (Qs)
0.124804     = Absorption efficiency (Qa)
 106.356     = Lidar ratio
0.352421E-02 micron^2 = <b> = Average surface area per particle
0.678626E-03 microns^2 = Extinction cross section (C)
0.238791E-03 microns^2 = Scattering cross section (Cs)
0.439835E-03 microns^2 = Absorption cross section (Ca)
 |----------------------------------------------------|
 | COMMENTAIRES:                                      |
 |----------------------------------------------------|
 |   -Cross section / <b> should = efficiency         |
 |    is independant of the normalisation of dN/dx    |
 |   -The integral of the phase fct / 4 pi over all   |
 |    directions (solid angle) = 1.                   |
 |   -The volume coefficient (k) is equal to C * N    |
 |      = cross section * Number density              |
 |      typical units: [um^2]*[particles/cm^3] =      |
 |      [10^-3 km-1]                                  |
 |      N = M/(d*4/3*pi*r^3) where d is the density   |
 |      of particle, M is the mass per unit volume    |
 |      and 4/3*pi*r^3 is the average volume  of a    |
 |      particle.                                     |
 |      typical units:  M -> [ug/m^3], d -> [g/cm^3]  |
 |                      r -> [um]                     |
 |      Lidar ratio= 4 pi Qe / phase_fct(180)*Qs      |
 |----------------------------------------------------|
