 |--------|------------|
 | ANGLE  |  PHASE FCT |
 |--------|------------|
     0.00   77.645    
     1.00   75.614    
     2.00   69.967    
     3.00   61.841    
     4.00   52.597    
     5.00   43.393    
     6.00   34.986    
     7.00   27.748    
     8.00   21.778    
     9.00   17.008    
    10.00   13.286    
    11.00   10.432    
    12.00   8.2714    
    13.00   6.6494    
    14.00   5.4382    
    15.00   4.5352    
    16.00   3.8616    
    17.00   3.3569    
    18.00   2.9761    
    19.00   2.6858    
    20.00   2.4617    
    21.00   2.2861    
    22.00   2.1458    
    23.00   2.0317    
    24.00   1.9370    
    25.00   1.8568    
    26.00   1.7876    
    27.00   1.7268    
    28.00   1.6725    
    29.00   1.6233    
    30.00   1.5782    
    31.00   1.5364    
    32.00   1.4973    
    33.00   1.4604    
    34.00   1.4255    
    35.00   1.3921    
    36.00   1.3602    
    37.00   1.3294    
    38.00   1.2998    
    39.00   1.2710    
    40.00   1.2431    
    41.00   1.2160    
    42.00   1.1896    
    43.00   1.1638    
    44.00   1.1386    
    45.00   1.1140    
    46.00   1.0899    
    47.00   1.0663    
    48.00   1.0432    
    49.00   1.0206    
    50.00  0.99840    
    51.00  0.97665    
    52.00  0.95534    
    53.00  0.93444    
    54.00  0.91397    
    55.00  0.89393    
    56.00  0.87429    
    57.00  0.85508    
    58.00  0.83628    
    59.00  0.81789    
    60.00  0.79991    
    61.00  0.78236    
    62.00  0.76522    
    63.00  0.74849    
    64.00  0.73219    
    65.00  0.71630    
    66.00  0.70083    
    67.00  0.68579    
    68.00  0.67116    
    69.00  0.65696    
    70.00  0.64318    
    71.00  0.62981    
    72.00  0.61687    
    73.00  0.60434    
    74.00  0.59223    
    75.00  0.58054    
    76.00  0.56927    
    77.00  0.55840    
    78.00  0.54795    
    79.00  0.53789    
    80.00  0.52825    
    81.00  0.51900    
    82.00  0.51015    
    83.00  0.50169    
    84.00  0.49361    
    85.00  0.48592    
    86.00  0.47861    
    87.00  0.47167    
    88.00  0.46510    
    89.00  0.45889    
    90.00  0.45304    
    91.00  0.44754    
    92.00  0.44238    
    93.00  0.43756    
    94.00  0.43307    
    95.00  0.42890    
    96.00  0.42506    
    97.00  0.42152    
    98.00  0.41829    
    99.00  0.41535    
   100.00  0.41270    
   101.00  0.41033    
   102.00  0.40824    
   103.00  0.40641    
   104.00  0.40485    
   105.00  0.40353    
   106.00  0.40246    
   107.00  0.40162    
   108.00  0.40101    
   109.00  0.40063    
   110.00  0.40045    
   111.00  0.40048    
   112.00  0.40071    
   113.00  0.40113    
   114.00  0.40173    
   115.00  0.40250    
   116.00  0.40344    
   117.00  0.40454    
   118.00  0.40579    
   119.00  0.40719    
   120.00  0.40872    
   121.00  0.41038    
   122.00  0.41217    
   123.00  0.41407    
   124.00  0.41607    
   125.00  0.41818    
   126.00  0.42039    
   127.00  0.42268    
   128.00  0.42505    
   129.00  0.42750    
   130.00  0.43002    
   131.00  0.43259    
   132.00  0.43523    
   133.00  0.43791    
   134.00  0.44064    
   135.00  0.44341    
   136.00  0.44621    
   137.00  0.44904    
   138.00  0.45190    
   139.00  0.45477    
   140.00  0.45767    
   141.00  0.46058    
   142.00  0.46350    
   143.00  0.46643    
   144.00  0.46936    
   145.00  0.47231    
   146.00  0.47526    
   147.00  0.47821    
   148.00  0.48117    
   149.00  0.48413    
   150.00  0.48709    
   151.00  0.49004    
   152.00  0.49297    
   153.00  0.49587    
   154.00  0.49872    
   155.00  0.50151    
   156.00  0.50420    
   157.00  0.50677    
   158.00  0.50918    
   159.00  0.51140    
   160.00  0.51341    
   161.00  0.51518    
   162.00  0.51670    
   163.00  0.51797    
   164.00  0.51902    
   165.00  0.51988    
   166.00  0.52060    
   167.00  0.52125    
   168.00  0.52190    
   169.00  0.52263    
   170.00  0.52350    
   171.00  0.52454    
   172.00  0.52579    
   173.00  0.52720    
   174.00  0.52875    
   175.00  0.53033    
   176.00  0.53185    
   177.00  0.53320    
   178.00  0.53425    
   179.00  0.53493    
   180.00  0.53516    
 |--------|------------|
0.540000     micron = Wavelength
0.304528     = Extinction efficiency (Q)
0.116058     = Scattering efficiency (Qs)
0.188470     = Absorption efficiency (Qa)
 61.6138     = Lidar ratio
0.730527E-02 micron^2 = <b> = Average surface area per particle
0.222466E-02 microns^2 = Extinction cross section (C)
0.847835E-03 microns^2 = Scattering cross section (Cs)
0.137683E-02 microns^2 = Absorption cross section (Ca)
 |----------------------------------------------------|
 | COMMENTAIRES:                                      |
 |----------------------------------------------------|
 |   -Cross section / <b> should = efficiency         |
 |    is independant of the normalisation of dN/dx    |
 |   -The integral of the phase fct / 4 pi over all   |
 |    directions (solid angle) = 1.                   |
 |   -The volume coefficient (k) is equal to C * N    |
 |      = cross section * Number density              |
 |      typical units: [um^2]*[particles/cm^3] =      |
 |      [10^-3 km-1]                                  |
 |      N = M/(d*4/3*pi*r^3) where d is the density   |
 |      of particle, M is the mass per unit volume    |
 |      and 4/3*pi*r^3 is the average volume  of a    |
 |      particle.                                     |
 |      typical units:  M -> [ug/m^3], d -> [g/cm^3]  |
 |                      r -> [um]                     |
 |      Lidar ratio= 4 pi Qe / phase_fct(180)*Qs      |
 |----------------------------------------------------|
