 |--------|------------|
 | ANGLE  |  PHASE FCT |
 |--------|------------|
     0.00   167.68    
     1.00   158.23    
     2.00   133.65    
     3.00   102.60    
     4.00   73.386    
     5.00   50.332    
     6.00   33.934    
     7.00   22.874    
     8.00   15.634    
     9.00   11.001    
    10.00   8.0645    
    11.00   6.1892    
    12.00   4.9749    
    13.00   4.1750    
    14.00   3.6309    
    15.00   3.2454    
    16.00   2.9627    
    17.00   2.7481    
    18.00   2.5781    
    19.00   2.4393    
    20.00   2.3238    
    21.00   2.2251    
    22.00   2.1392    
    23.00   2.0634    
    24.00   1.9958    
    25.00   1.9346    
    26.00   1.8787    
    27.00   1.8272    
    28.00   1.7794    
    29.00   1.7345    
    30.00   1.6922    
    31.00   1.6521    
    32.00   1.6137    
    33.00   1.5769    
    34.00   1.5414    
    35.00   1.5071    
    36.00   1.4738    
    37.00   1.4413    
    38.00   1.4096    
    39.00   1.3787    
    40.00   1.3483    
    41.00   1.3186    
    42.00   1.2894    
    43.00   1.2608    
    44.00   1.2326    
    45.00   1.2049    
    46.00   1.1776    
    47.00   1.1508    
    48.00   1.1245    
    49.00   1.0985    
    50.00   1.0731    
    51.00   1.0480    
    52.00   1.0234    
    53.00  0.99926    
    54.00  0.97555    
    55.00  0.95227    
    56.00  0.92945    
    57.00  0.90710    
    58.00  0.88520    
    59.00  0.86376    
    60.00  0.84279    
    61.00  0.82229    
    62.00  0.80227    
    63.00  0.78273    
    64.00  0.76367    
    65.00  0.74509    
    66.00  0.72699    
    67.00  0.70938    
    68.00  0.69226    
    69.00  0.67562    
    70.00  0.65946    
    71.00  0.64379    
    72.00  0.62860    
    73.00  0.61389    
    74.00  0.59966    
    75.00  0.58590    
    76.00  0.57261    
    77.00  0.55980    
    78.00  0.54744    
    79.00  0.53554    
    80.00  0.52410    
    81.00  0.51310    
    82.00  0.50255    
    83.00  0.49243    
    84.00  0.48274    
    85.00  0.47348    
    86.00  0.46462    
    87.00  0.45618    
    88.00  0.44814    
    89.00  0.44049    
    90.00  0.43323    
    91.00  0.42635    
    92.00  0.41983    
    93.00  0.41368    
    94.00  0.40788    
    95.00  0.40242    
    96.00  0.39730    
    97.00  0.39251    
    98.00  0.38804    
    99.00  0.38388    
   100.00  0.38002    
   101.00  0.37645    
   102.00  0.37317    
   103.00  0.37016    
   104.00  0.36742    
   105.00  0.36494    
   106.00  0.36271    
   107.00  0.36072    
   108.00  0.35897    
   109.00  0.35743    
   110.00  0.35612    
   111.00  0.35501    
   112.00  0.35410    
   113.00  0.35339    
   114.00  0.35286    
   115.00  0.35250    
   116.00  0.35232    
   117.00  0.35229    
   118.00  0.35242    
   119.00  0.35270    
   120.00  0.35311    
   121.00  0.35365    
   122.00  0.35432    
   123.00  0.35511    
   124.00  0.35601    
   125.00  0.35701    
   126.00  0.35811    
   127.00  0.35930    
   128.00  0.36058    
   129.00  0.36193    
   130.00  0.36336    
   131.00  0.36486    
   132.00  0.36642    
   133.00  0.36803    
   134.00  0.36969    
   135.00  0.37140    
   136.00  0.37315    
   137.00  0.37493    
   138.00  0.37674    
   139.00  0.37857    
   140.00  0.38043    
   141.00  0.38230    
   142.00  0.38418    
   143.00  0.38607    
   144.00  0.38796    
   145.00  0.38984    
   146.00  0.39173    
   147.00  0.39360    
   148.00  0.39546    
   149.00  0.39732    
   150.00  0.39915    
   151.00  0.40097    
   152.00  0.40278    
   153.00  0.40456    
   154.00  0.40633    
   155.00  0.40808    
   156.00  0.40980    
   157.00  0.41149    
   158.00  0.41315    
   159.00  0.41475    
   160.00  0.41629    
   161.00  0.41776    
   162.00  0.41913    
   163.00  0.42039    
   164.00  0.42154    
   165.00  0.42255    
   166.00  0.42345    
   167.00  0.42424    
   168.00  0.42495    
   169.00  0.42560    
   170.00  0.42622    
   171.00  0.42684    
   172.00  0.42748    
   173.00  0.42816    
   174.00  0.42886    
   175.00  0.42957    
   176.00  0.43025    
   177.00  0.43085    
   178.00  0.43132    
   179.00  0.43163    
   180.00  0.43174    
 |--------|------------|
0.720000     micron = Wavelength
0.438008     = Extinction efficiency (Q)
0.192318     = Scattering efficiency (Qs)
0.245690     = Absorption efficiency (Qa)
 66.2907     = Lidar ratio
0.200032E-01 micron^2 = <b> = Average surface area per particle
0.876157E-02 microns^2 = Extinction cross section (C)
0.384698E-02 microns^2 = Scattering cross section (Cs)
0.491458E-02 microns^2 = Absorption cross section (Ca)
 |----------------------------------------------------|
 | COMMENTAIRES:                                      |
 |----------------------------------------------------|
 |   -Cross section / <b> should = efficiency         |
 |    is independant of the normalisation of dN/dx    |
 |   -The integral of the phase fct / 4 pi over all   |
 |    directions (solid angle) = 1.                   |
 |   -The volume coefficient (k) is equal to C * N    |
 |      = cross section * Number density              |
 |      typical units: [um^2]*[particles/cm^3] =      |
 |      [10^-3 km-1]                                  |
 |      N = M/(d*4/3*pi*r^3) where d is the density   |
 |      of particle, M is the mass per unit volume    |
 |      and 4/3*pi*r^3 is the average volume  of a    |
 |      particle.                                     |
 |      typical units:  M -> [ug/m^3], d -> [g/cm^3]  |
 |                      r -> [um]                     |
 |      Lidar ratio= 4 pi Qe / phase_fct(180)*Qs      |
 |----------------------------------------------------|
