 |--------|------------|
 | ANGLE  |  PHASE FCT |
 |--------|------------|
     0.00   144.07    
     1.00   132.62    
     2.00   104.02    
     3.00   70.943    
     4.00   43.931    
     5.00   26.433    
     6.00   16.496    
     7.00   10.997    
     8.00   7.9048    
     9.00   6.1819    
    10.00   5.2067    
    11.00   4.6020    
    12.00   4.2003    
    13.00   3.9262    
    14.00   3.7227    
    15.00   3.5583    
    16.00   3.4243    
    17.00   3.3126    
    18.00   3.2138    
    19.00   3.1248    
    20.00   3.0452    
    21.00   2.9717    
    22.00   2.9021    
    23.00   2.8365    
    24.00   2.7741    
    25.00   2.7136    
    26.00   2.6546    
    27.00   2.5974    
    28.00   2.5413    
    29.00   2.4859    
    30.00   2.4313    
    31.00   2.3775    
    32.00   2.3242    
    33.00   2.2714    
    34.00   2.2191    
    35.00   2.1674    
    36.00   2.1161    
    37.00   2.0653    
    38.00   2.0150    
    39.00   1.9653    
    40.00   1.9161    
    41.00   1.8674    
    42.00   1.8194    
    43.00   1.7719    
    44.00   1.7251    
    45.00   1.6790    
    46.00   1.6336    
    47.00   1.5889    
    48.00   1.5450    
    49.00   1.5018    
    50.00   1.4594    
    51.00   1.4178    
    52.00   1.3771    
    53.00   1.3371    
    54.00   1.2981    
    55.00   1.2599    
    56.00   1.2226    
    57.00   1.1861    
    58.00   1.1506    
    59.00   1.1159    
    60.00   1.0821    
    61.00   1.0492    
    62.00   1.0173    
    63.00  0.98617    
    64.00  0.95597    
    65.00  0.92664    
    66.00  0.89820    
    67.00  0.87063    
    68.00  0.84392    
    69.00  0.81806    
    70.00  0.79305    
    71.00  0.76886    
    72.00  0.74549    
    73.00  0.72293    
    74.00  0.70116    
    75.00  0.68017    
    76.00  0.65994    
    77.00  0.64046    
    78.00  0.62172    
    79.00  0.60369    
    80.00  0.58636    
    81.00  0.56972    
    82.00  0.55376    
    83.00  0.53844    
    84.00  0.52376    
    85.00  0.50970    
    86.00  0.49625    
    87.00  0.48338    
    88.00  0.47109    
    89.00  0.45935    
    90.00  0.44815    
    91.00  0.43747    
    92.00  0.42730    
    93.00  0.41762    
    94.00  0.40841    
    95.00  0.39967    
    96.00  0.39137    
    97.00  0.38351    
    98.00  0.37606    
    99.00  0.36901    
   100.00  0.36235    
   101.00  0.35607    
   102.00  0.35015    
   103.00  0.34458    
   104.00  0.33934    
   105.00  0.33443    
   106.00  0.32983    
   107.00  0.32553    
   108.00  0.32152    
   109.00  0.31779    
   110.00  0.31432    
   111.00  0.31111    
   112.00  0.30815    
   113.00  0.30542    
   114.00  0.30292    
   115.00  0.30063    
   116.00  0.29856    
   117.00  0.29668    
   118.00  0.29499    
   119.00  0.29348    
   120.00  0.29215    
   121.00  0.29098    
   122.00  0.28997    
   123.00  0.28911    
   124.00  0.28839    
   125.00  0.28781    
   126.00  0.28736    
   127.00  0.28703    
   128.00  0.28682    
   129.00  0.28671    
   130.00  0.28671    
   131.00  0.28681    
   132.00  0.28700    
   133.00  0.28727    
   134.00  0.28763    
   135.00  0.28806    
   136.00  0.28856    
   137.00  0.28913    
   138.00  0.28976    
   139.00  0.29044    
   140.00  0.29117    
   141.00  0.29195    
   142.00  0.29277    
   143.00  0.29362    
   144.00  0.29451    
   145.00  0.29543    
   146.00  0.29637    
   147.00  0.29733    
   148.00  0.29831    
   149.00  0.29930    
   150.00  0.30030    
   151.00  0.30130    
   152.00  0.30231    
   153.00  0.30332    
   154.00  0.30432    
   155.00  0.30532    
   156.00  0.30631    
   157.00  0.30728    
   158.00  0.30825    
   159.00  0.30919    
   160.00  0.31011    
   161.00  0.31100    
   162.00  0.31187    
   163.00  0.31269    
   164.00  0.31348    
   165.00  0.31422    
   166.00  0.31491    
   167.00  0.31556    
   168.00  0.31616    
   169.00  0.31671    
   170.00  0.31723    
   171.00  0.31770    
   172.00  0.31815    
   173.00  0.31855    
   174.00  0.31893    
   175.00  0.31926    
   176.00  0.31955    
   177.00  0.31980    
   178.00  0.31998    
   179.00  0.32009    
   180.00  0.32013    
 |--------|------------|
0.540000     micron = Wavelength
0.676650     = Extinction efficiency (Q)
0.347952     = Scattering efficiency (Qs)
0.328698     = Absorption efficiency (Qa)
 76.3360     = Lidar ratio
0.199756E-01 micron^2 = <b> = Average surface area per particle
0.135165E-01 microns^2 = Extinction cross section (C)
0.695055E-02 microns^2 = Scattering cross section (Cs)
0.656593E-02 microns^2 = Absorption cross section (Ca)
 |----------------------------------------------------|
 | COMMENTAIRES:                                      |
 |----------------------------------------------------|
 |   -Cross section / <b> should = efficiency         |
 |    is independant of the normalisation of dN/dx    |
 |   -The integral of the phase fct / 4 pi over all   |
 |    directions (solid angle) = 1.                   |
 |   -The volume coefficient (k) is equal to C * N    |
 |      = cross section * Number density              |
 |      typical units: [um^2]*[particles/cm^3] =      |
 |      [10^-3 km-1]                                  |
 |      N = M/(d*4/3*pi*r^3) where d is the density   |
 |      of particle, M is the mass per unit volume    |
 |      and 4/3*pi*r^3 is the average volume  of a    |
 |      particle.                                     |
 |      typical units:  M -> [ug/m^3], d -> [g/cm^3]  |
 |                      r -> [um]                     |
 |      Lidar ratio= 4 pi Qe / phase_fct(180)*Qs      |
 |----------------------------------------------------|
