 |--------|------------|
 | ANGLE  |  PHASE FCT |
 |--------|------------|
     0.00   117.75    
     1.00   106.59    
     2.00   79.437    
     3.00   49.792    
     4.00   27.964    
     5.00   15.977    
     6.00   10.466    
     7.00   7.8565    
     8.00   6.4541    
     9.00   5.7072    
    10.00   5.2934    
    11.00   5.0008    
    12.00   4.7764    
    13.00   4.6114    
    14.00   4.4747    
    15.00   4.3492    
    16.00   4.2387    
    17.00   4.1403    
    18.00   4.0456    
    19.00   3.9541    
    20.00   3.8677    
    21.00   3.7833    
    22.00   3.6992    
    23.00   3.6166    
    24.00   3.5354    
    25.00   3.4541    
    26.00   3.3731    
    27.00   3.2928    
    28.00   3.2128    
    29.00   3.1329    
    30.00   3.0535    
    31.00   2.9747    
    32.00   2.8962    
    33.00   2.8183    
    34.00   2.7410    
    35.00   2.6646    
    36.00   2.5888    
    37.00   2.5140    
    38.00   2.4401    
    39.00   2.3673    
    40.00   2.2955    
    41.00   2.2249    
    42.00   2.1555    
    43.00   2.0874    
    44.00   2.0205    
    45.00   1.9551    
    46.00   1.8910    
    47.00   1.8283    
    48.00   1.7671    
    49.00   1.7074    
    50.00   1.6491    
    51.00   1.5924    
    52.00   1.5371    
    53.00   1.4834    
    54.00   1.4312    
    55.00   1.3805    
    56.00   1.3314    
    57.00   1.2837    
    58.00   1.2375    
    59.00   1.1928    
    60.00   1.1496    
    61.00   1.1078    
    62.00   1.0674    
    63.00   1.0284    
    64.00  0.99074    
    65.00  0.95445    
    66.00  0.91948    
    67.00  0.88579    
    68.00  0.85336    
    69.00  0.82216    
    70.00  0.79216    
    71.00  0.76332    
    72.00  0.73562    
    73.00  0.70902    
    74.00  0.68349    
    75.00  0.65900    
    76.00  0.63552    
    77.00  0.61301    
    78.00  0.59145    
    79.00  0.57081    
    80.00  0.55105    
    81.00  0.53214    
    82.00  0.51406    
    83.00  0.49678    
    84.00  0.48026    
    85.00  0.46448    
    86.00  0.44941    
    87.00  0.43503    
    88.00  0.42131    
    89.00  0.40823    
    90.00  0.39576    
    91.00  0.38387    
    92.00  0.37255    
    93.00  0.36177    
    94.00  0.35152    
    95.00  0.34176    
    96.00  0.33248    
    97.00  0.32366    
    98.00  0.31529    
    99.00  0.30734    
   100.00  0.29979    
   101.00  0.29263    
   102.00  0.28585    
   103.00  0.27943    
   104.00  0.27335    
   105.00  0.26759    
   106.00  0.26215    
   107.00  0.25702    
   108.00  0.25218    
   109.00  0.24761    
   110.00  0.24331    
   111.00  0.23926    
   112.00  0.23546    
   113.00  0.23189    
   114.00  0.22854    
   115.00  0.22541    
   116.00  0.22249    
   117.00  0.21976    
   118.00  0.21723    
   119.00  0.21487    
   120.00  0.21269    
   121.00  0.21067    
   122.00  0.20882    
   123.00  0.20712    
   124.00  0.20556    
   125.00  0.20414    
   126.00  0.20286    
   127.00  0.20171    
   128.00  0.20068    
   129.00  0.19977    
   130.00  0.19897    
   131.00  0.19827    
   132.00  0.19768    
   133.00  0.19719    
   134.00  0.19680    
   135.00  0.19649    
   136.00  0.19626    
   137.00  0.19612    
   138.00  0.19605    
   139.00  0.19605    
   140.00  0.19613    
   141.00  0.19626    
   142.00  0.19646    
   143.00  0.19671    
   144.00  0.19701    
   145.00  0.19737    
   146.00  0.19776    
   147.00  0.19820    
   148.00  0.19868    
   149.00  0.19919    
   150.00  0.19973    
   151.00  0.20030    
   152.00  0.20089    
   153.00  0.20150    
   154.00  0.20212    
   155.00  0.20276    
   156.00  0.20341    
   157.00  0.20406    
   158.00  0.20472    
   159.00  0.20537    
   160.00  0.20603    
   161.00  0.20667    
   162.00  0.20730    
   163.00  0.20792    
   164.00  0.20852    
   165.00  0.20910    
   166.00  0.20965    
   167.00  0.21018    
   168.00  0.21067    
   169.00  0.21114    
   170.00  0.21157    
   171.00  0.21198    
   172.00  0.21234    
   173.00  0.21267    
   174.00  0.21296    
   175.00  0.21321    
   176.00  0.21343    
   177.00  0.21360    
   178.00  0.21372    
   179.00  0.21379    
   180.00  0.21382    
 |--------|------------|
0.436000     micron = Wavelength
0.958319     = Extinction efficiency (Q)
0.542706     = Scattering efficiency (Qs)
0.415614     = Absorption efficiency (Qa)
 103.779     = Lidar ratio
0.199163E-01 micron^2 = <b> = Average surface area per particle
0.190861E-01 microns^2 = Extinction cross section (C)
0.108087E-01 microns^2 = Scattering cross section (Cs)
0.827747E-02 microns^2 = Absorption cross section (Ca)
 |----------------------------------------------------|
 | COMMENTAIRES:                                      |
 |----------------------------------------------------|
 |   -Cross section / <b> should = efficiency         |
 |    is independant of the normalisation of dN/dx    |
 |   -The integral of the phase fct / 4 pi over all   |
 |    directions (solid angle) = 1.                   |
 |   -The volume coefficient (k) is equal to C * N    |
 |      = cross section * Number density              |
 |      typical units: [um^2]*[particles/cm^3] =      |
 |      [10^-3 km-1]                                  |
 |      N = M/(d*4/3*pi*r^3) where d is the density   |
 |      of particle, M is the mass per unit volume    |
 |      and 4/3*pi*r^3 is the average volume  of a    |
 |      particle.                                     |
 |      typical units:  M -> [ug/m^3], d -> [g/cm^3]  |
 |                      r -> [um]                     |
 |      Lidar ratio= 4 pi Qe / phase_fct(180)*Qs      |
 |----------------------------------------------------|
