 |--------|------------|
 | ANGLE  |  PHASE FCT |
 |--------|------------|
     0.00   88.430    
     1.00   86.444    
     2.00   80.866    
     3.00   72.680    
     4.00   63.110    
     5.00   53.266    
     6.00   43.954    
     7.00   35.644    
     8.00   28.541    
     9.00   22.661    
    10.00   17.913    
    11.00   14.150    
    12.00   11.210    
    13.00   8.9362    
    14.00   7.1922    
    15.00   5.8605    
    16.00   4.8462    
    17.00   4.0737    
    18.00   3.4841    
    19.00   3.0321    
    20.00   2.6831    
    21.00   2.4114    
    22.00   2.1973    
    23.00   2.0265    
    24.00   1.8881    
    25.00   1.7742    
    26.00   1.6789    
    27.00   1.5978    
    28.00   1.5277    
    29.00   1.4662    
    30.00   1.4114    
    31.00   1.3619    
    32.00   1.3169    
    33.00   1.2754    
    34.00   1.2369    
    35.00   1.2009    
    36.00   1.1670    
    37.00   1.1350    
    38.00   1.1045    
    39.00   1.0755    
    40.00   1.0478    
    41.00   1.0212    
    42.00  0.99555    
    43.00  0.97090    
    44.00  0.94710    
    45.00  0.92408    
    46.00  0.90182    
    47.00  0.88023    
    48.00  0.85929    
    49.00  0.83897    
    50.00  0.81922    
    51.00  0.80004    
    52.00  0.78139    
    53.00  0.76325    
    54.00  0.74560    
    55.00  0.72843    
    56.00  0.71174    
    57.00  0.69549    
    58.00  0.67969    
    59.00  0.66432    
    60.00  0.64938    
    61.00  0.63486    
    62.00  0.62075    
    63.00  0.60704    
    64.00  0.59374    
    65.00  0.58084    
    66.00  0.56832    
    67.00  0.55619    
    68.00  0.54444    
    69.00  0.53307    
    70.00  0.52208    
    71.00  0.51146    
    72.00  0.50120    
    73.00  0.49131    
    74.00  0.48177    
    75.00  0.47260    
    76.00  0.46377    
    77.00  0.45530    
    78.00  0.44716    
    79.00  0.43937    
    80.00  0.43191    
    81.00  0.42478    
    82.00  0.41798    
    83.00  0.41151    
    84.00  0.40535    
    85.00  0.39951    
    86.00  0.39398    
    87.00  0.38875    
    88.00  0.38382    
    89.00  0.37919    
    90.00  0.37484    
    91.00  0.37079    
    92.00  0.36701    
    93.00  0.36350    
    94.00  0.36027    
    95.00  0.35729    
    96.00  0.35458    
    97.00  0.35211    
    98.00  0.34989    
    99.00  0.34791    
   100.00  0.34617    
   101.00  0.34465    
   102.00  0.34336    
   103.00  0.34228    
   104.00  0.34141    
   105.00  0.34075    
   106.00  0.34028    
   107.00  0.34000    
   108.00  0.33991    
   109.00  0.34000    
   110.00  0.34026    
   111.00  0.34069    
   112.00  0.34128    
   113.00  0.34203    
   114.00  0.34292    
   115.00  0.34395    
   116.00  0.34512    
   117.00  0.34642    
   118.00  0.34784    
   119.00  0.34939    
   120.00  0.35104    
   121.00  0.35280    
   122.00  0.35466    
   123.00  0.35661    
   124.00  0.35865    
   125.00  0.36078    
   126.00  0.36298    
   127.00  0.36526    
   128.00  0.36760    
   129.00  0.37001    
   130.00  0.37247    
   131.00  0.37498    
   132.00  0.37754    
   133.00  0.38014    
   134.00  0.38278    
   135.00  0.38546    
   136.00  0.38817    
   137.00  0.39091    
   138.00  0.39367    
   139.00  0.39646    
   140.00  0.39927    
   141.00  0.40210    
   142.00  0.40495    
   143.00  0.40782    
   144.00  0.41072    
   145.00  0.41365    
   146.00  0.41659    
   147.00  0.41957    
   148.00  0.42257    
   149.00  0.42559    
   150.00  0.42864    
   151.00  0.43169    
   152.00  0.43474    
   153.00  0.43776    
   154.00  0.44073    
   155.00  0.44362    
   156.00  0.44639    
   157.00  0.44898    
   158.00  0.45135    
   159.00  0.45346    
   160.00  0.45526    
   161.00  0.45671    
   162.00  0.45781    
   163.00  0.45856    
   164.00  0.45899    
   165.00  0.45918    
   166.00  0.45919    
   167.00  0.45915    
   168.00  0.45917    
   169.00  0.45937    
   170.00  0.45984    
   171.00  0.46066    
   172.00  0.46186    
   173.00  0.46340    
   174.00  0.46522    
   175.00  0.46719    
   176.00  0.46914    
   177.00  0.47091    
   178.00  0.47232    
   179.00  0.47323    
   180.00  0.47354    
 |--------|------------|
0.720000     micron = Wavelength
0.261162     = Extinction efficiency (Q)
0.942008E-01 = Scattering efficiency (Qs)
0.166961     = Absorption efficiency (Qa)
 73.5706     = Lidar ratio
0.100547E-01 micron^2 = <b> = Average surface area per particle
0.262590E-02 microns^2 = Extinction cross section (C)
0.947161E-03 microns^2 = Scattering cross section (Cs)
0.167874E-02 microns^2 = Absorption cross section (Ca)
 |----------------------------------------------------|
 | COMMENTAIRES:                                      |
 |----------------------------------------------------|
 |   -Cross section / <b> should = efficiency         |
 |    is independant of the normalisation of dN/dx    |
 |   -The integral of the phase fct / 4 pi over all   |
 |    directions (solid angle) = 1.                   |
 |   -The volume coefficient (k) is equal to C * N    |
 |      = cross section * Number density              |
 |      typical units: [um^2]*[particles/cm^3] =      |
 |      [10^-3 km-1]                                  |
 |      N = M/(d*4/3*pi*r^3) where d is the density   |
 |      of particle, M is the mass per unit volume    |
 |      and 4/3*pi*r^3 is the average volume  of a    |
 |      particle.                                     |
 |      typical units:  M -> [ug/m^3], d -> [g/cm^3]  |
 |                      r -> [um]                     |
 |      Lidar ratio= 4 pi Qe / phase_fct(180)*Qs      |
 |----------------------------------------------------|
