 |--------|------------|
 | ANGLE  |  PHASE FCT |
 |--------|------------|
     0.00   68.437    
     1.00   67.166    
     2.00   63.561    
     3.00   58.162    
     4.00   51.673    
     5.00   44.775    
     6.00   38.009    
     7.00   31.745    
     8.00   26.183    
     9.00   21.402    
    10.00   17.396    
    11.00   14.103    
    12.00   11.438    
    13.00   9.3064    
    14.00   7.6171    
    15.00   6.2873    
    16.00   5.2451    
    17.00   4.4305    
    18.00   3.7942    
    19.00   3.2967    
    20.00   2.9065    
    21.00   2.5989    
    22.00   2.3548    
    23.00   2.1594    
    24.00   2.0015    
    25.00   1.8721    
    26.00   1.7649    
    27.00   1.6746    
    28.00   1.5976    
    29.00   1.5308    
    30.00   1.4721    
    31.00   1.4198    
    32.00   1.3726    
    33.00   1.3296    
    34.00   1.2899    
    35.00   1.2530    
    36.00   1.2184    
    37.00   1.1858    
    38.00   1.1549    
    39.00   1.1254    
    40.00   1.0972    
    41.00   1.0702    
    42.00   1.0442    
    43.00   1.0192    
    44.00  0.99497    
    45.00  0.97154    
    46.00  0.94883    
    47.00  0.92680    
    48.00  0.90540    
    49.00  0.88460    
    50.00  0.86437    
    51.00  0.84470    
    52.00  0.82555    
    53.00  0.80691    
    54.00  0.78875    
    55.00  0.77107    
    56.00  0.75385    
    57.00  0.73709    
    58.00  0.72077    
    59.00  0.70489    
    60.00  0.68943    
    61.00  0.67439    
    62.00  0.65977    
    63.00  0.64556    
    64.00  0.63175    
    65.00  0.61835    
    66.00  0.60534    
    67.00  0.59273    
    68.00  0.58050    
    69.00  0.56867    
    70.00  0.55721    
    71.00  0.54613    
    72.00  0.53544    
    73.00  0.52511    
    74.00  0.51516    
    75.00  0.50557    
    76.00  0.49635    
    77.00  0.48749    
    78.00  0.47898    
    79.00  0.47083    
    80.00  0.46303    
    81.00  0.45557    
    82.00  0.44845    
    83.00  0.44168    
    84.00  0.43523    
    85.00  0.42912    
    86.00  0.42333    
    87.00  0.41786    
    88.00  0.41271    
    89.00  0.40786    
    90.00  0.40333    
    91.00  0.39909    
    92.00  0.39515    
    93.00  0.39150    
    94.00  0.38813    
    95.00  0.38504    
    96.00  0.38223    
    97.00  0.37968    
    98.00  0.37740    
    99.00  0.37537    
   100.00  0.37359    
   101.00  0.37205    
   102.00  0.37075    
   103.00  0.36968    
   104.00  0.36884    
   105.00  0.36821    
   106.00  0.36780    
   107.00  0.36759    
   108.00  0.36758    
   109.00  0.36777    
   110.00  0.36813    
   111.00  0.36868    
   112.00  0.36940    
   113.00  0.37029    
   114.00  0.37134    
   115.00  0.37254    
   116.00  0.37389    
   117.00  0.37538    
   118.00  0.37700    
   119.00  0.37875    
   120.00  0.38062    
   121.00  0.38260    
   122.00  0.38470    
   123.00  0.38689    
   124.00  0.38919    
   125.00  0.39157    
   126.00  0.39404    
   127.00  0.39658    
   128.00  0.39920    
   129.00  0.40189    
   130.00  0.40465    
   131.00  0.40746    
   132.00  0.41032    
   133.00  0.41323    
   134.00  0.41619    
   135.00  0.41920    
   136.00  0.42224    
   137.00  0.42532    
   138.00  0.42843    
   139.00  0.43158    
   140.00  0.43475    
   141.00  0.43796    
   142.00  0.44120    
   143.00  0.44447    
   144.00  0.44777    
   145.00  0.45109    
   146.00  0.45444    
   147.00  0.45781    
   148.00  0.46119    
   149.00  0.46456    
   150.00  0.46792    
   151.00  0.47125    
   152.00  0.47452    
   153.00  0.47771    
   154.00  0.48077    
   155.00  0.48367    
   156.00  0.48638    
   157.00  0.48886    
   158.00  0.49107    
   159.00  0.49298    
   160.00  0.49458    
   161.00  0.49588    
   162.00  0.49689    
   163.00  0.49766    
   164.00  0.49824    
   165.00  0.49871    
   166.00  0.49916    
   167.00  0.49969    
   168.00  0.50039    
   169.00  0.50134    
   170.00  0.50260    
   171.00  0.50419    
   172.00  0.50609    
   173.00  0.50825    
   174.00  0.51055    
   175.00  0.51288    
   176.00  0.51508    
   177.00  0.51701    
   178.00  0.51850    
   179.00  0.51945    
   180.00  0.51977    
 |--------|------------|
0.440000     micron = Wavelength
0.253322     = Extinction efficiency (Q)
0.893876E-01 = Scattering efficiency (Qs)
0.163934     = Absorption efficiency (Qa)
 68.5161     = Lidar ratio
0.352420E-02 micron^2 = <b> = Average surface area per particle
0.892756E-03 microns^2 = Extinction cross section (C)
0.315019E-03 microns^2 = Scattering cross section (Cs)
0.577737E-03 microns^2 = Absorption cross section (Ca)
 |----------------------------------------------------|
 | COMMENTAIRES:                                      |
 |----------------------------------------------------|
 |   -Cross section / <b> should = efficiency         |
 |    is independant of the normalisation of dN/dx    |
 |   -The integral of the phase fct / 4 pi over all   |
 |    directions (solid angle) = 1.                   |
 |   -The volume coefficient (k) is equal to C * N    |
 |      = cross section * Number density              |
 |      typical units: [um^2]*[particles/cm^3] =      |
 |      [10^-3 km-1]                                  |
 |      N = M/(d*4/3*pi*r^3) where d is the density   |
 |      of particle, M is the mass per unit volume    |
 |      and 4/3*pi*r^3 is the average volume  of a    |
 |      particle.                                     |
 |      typical units:  M -> [ug/m^3], d -> [g/cm^3]  |
 |                      r -> [um]                     |
 |      Lidar ratio= 4 pi Qe / phase_fct(180)*Qs      |
 |----------------------------------------------------|
