 |--------|------------|
 | ANGLE  |  PHASE FCT |
 |--------|------------|
     0.00   62.846    
     1.00   60.283    
     2.00   53.417    
     3.00   44.229    
     4.00   34.795    
     5.00   26.489    
     6.00   19.838    
     7.00   14.814    
     8.00   11.164    
     9.00   8.5843    
    10.00   6.7917    
    11.00   5.5556    
    12.00   4.7039    
    13.00   4.1142    
    14.00   3.7005    
    15.00   3.4042    
    16.00   3.1865    
    17.00   3.0217    
    18.00   2.8923    
    19.00   2.7872    
    20.00   2.6989    
    21.00   2.6225    
    22.00   2.5545    
    23.00   2.4928    
    24.00   2.4357    
    25.00   2.3822    
    26.00   2.3315    
    27.00   2.2830    
    28.00   2.2362    
    29.00   2.1908    
    30.00   2.1467    
    31.00   2.1036    
    32.00   2.0612    
    33.00   2.0196    
    34.00   1.9786    
    35.00   1.9382    
    36.00   1.8983    
    37.00   1.8588    
    38.00   1.8198    
    39.00   1.7812    
    40.00   1.7430    
    41.00   1.7051    
    42.00   1.6677    
    43.00   1.6307    
    44.00   1.5941    
    45.00   1.5579    
    46.00   1.5222    
    47.00   1.4869    
    48.00   1.4520    
    49.00   1.4176    
    50.00   1.3838    
    51.00   1.3504    
    52.00   1.3175    
    53.00   1.2852    
    54.00   1.2534    
    55.00   1.2222    
    56.00   1.1916    
    57.00   1.1615    
    58.00   1.1320    
    59.00   1.1032    
    60.00   1.0749    
    61.00   1.0473    
    62.00   1.0203    
    63.00  0.99394    
    64.00  0.96822    
    65.00  0.94314    
    66.00  0.91871    
    67.00  0.89493    
    68.00  0.87179    
    69.00  0.84931    
    70.00  0.82747    
    71.00  0.80628    
    72.00  0.78574    
    73.00  0.76583    
    74.00  0.74656    
    75.00  0.72793    
    76.00  0.70992    
    77.00  0.69253    
    78.00  0.67575    
    79.00  0.65959    
    80.00  0.64402    
    81.00  0.62904    
    82.00  0.61464    
    83.00  0.60082    
    84.00  0.58756    
    85.00  0.57485    
    86.00  0.56269    
    87.00  0.55106    
    88.00  0.53996    
    89.00  0.52936    
    90.00  0.51927    
    91.00  0.50967    
    92.00  0.50055    
    93.00  0.49189    
    94.00  0.48370    
    95.00  0.47594    
    96.00  0.46863    
    97.00  0.46173    
    98.00  0.45524    
    99.00  0.44915    
   100.00  0.44345    
   101.00  0.43813    
   102.00  0.43317    
   103.00  0.42856    
   104.00  0.42430    
   105.00  0.42036    
   106.00  0.41675    
   107.00  0.41344    
   108.00  0.41044    
   109.00  0.40772    
   110.00  0.40527    
   111.00  0.40310    
   112.00  0.40118    
   113.00  0.39951    
   114.00  0.39807    
   115.00  0.39686    
   116.00  0.39586    
   117.00  0.39508    
   118.00  0.39449    
   119.00  0.39409    
   120.00  0.39387    
   121.00  0.39383    
   122.00  0.39394    
   123.00  0.39421    
   124.00  0.39463    
   125.00  0.39518    
   126.00  0.39587    
   127.00  0.39667    
   128.00  0.39760    
   129.00  0.39863    
   130.00  0.39975    
   131.00  0.40098    
   132.00  0.40228    
   133.00  0.40367    
   134.00  0.40513    
   135.00  0.40666    
   136.00  0.40824    
   137.00  0.40988    
   138.00  0.41157    
   139.00  0.41330    
   140.00  0.41506    
   141.00  0.41686    
   142.00  0.41868    
   143.00  0.42052    
   144.00  0.42239    
   145.00  0.42426    
   146.00  0.42614    
   147.00  0.42803    
   148.00  0.42992    
   149.00  0.43180    
   150.00  0.43368    
   151.00  0.43555    
   152.00  0.43741    
   153.00  0.43925    
   154.00  0.44107    
   155.00  0.44286    
   156.00  0.44461    
   157.00  0.44632    
   158.00  0.44797    
   159.00  0.44956    
   160.00  0.45107    
   161.00  0.45250    
   162.00  0.45384    
   163.00  0.45508    
   164.00  0.45624    
   165.00  0.45730    
   166.00  0.45829    
   167.00  0.45921    
   168.00  0.46008    
   169.00  0.46092    
   170.00  0.46173    
   171.00  0.46254    
   172.00  0.46334    
   173.00  0.46412    
   174.00  0.46488    
   175.00  0.46559    
   176.00  0.46623    
   177.00  0.46678    
   178.00  0.46719    
   179.00  0.46745    
   180.00  0.46753    
 |--------|------------|
0.340000     micron = Wavelength
0.489798     = Extinction efficiency (Q)
0.226929     = Scattering efficiency (Qs)
0.262868     = Absorption efficiency (Qa)
 58.0126     = Lidar ratio
0.513777E-02 micron^2 = <b> = Average surface area per particle
0.251647E-02 microns^2 = Extinction cross section (C)
0.116591E-02 microns^2 = Scattering cross section (Cs)
0.135056E-02 microns^2 = Absorption cross section (Ca)
 |----------------------------------------------------|
 | COMMENTAIRES:                                      |
 |----------------------------------------------------|
 |   -Cross section / <b> should = efficiency         |
 |    is independant of the normalisation of dN/dx    |
 |   -The integral of the phase fct / 4 pi over all   |
 |    directions (solid angle) = 1.                   |
 |   -The volume coefficient (k) is equal to C * N    |
 |      = cross section * Number density              |
 |      typical units: [um^2]*[particles/cm^3] =      |
 |      [10^-3 km-1]                                  |
 |      N = M/(d*4/3*pi*r^3) where d is the density   |
 |      of particle, M is the mass per unit volume    |
 |      and 4/3*pi*r^3 is the average volume  of a    |
 |      particle.                                     |
 |      typical units:  M -> [ug/m^3], d -> [g/cm^3]  |
 |                      r -> [um]                     |
 |      Lidar ratio= 4 pi Qe / phase_fct(180)*Qs      |
 |----------------------------------------------------|
