 |--------|------------|
 | ANGLE  |  PHASE FCT |
 |--------|------------|
     0.00   44.360    
     1.00   43.992    
     2.00   42.914    
     3.00   41.205    
     4.00   38.978    
     5.00   36.370    
     6.00   33.518    
     7.00   30.550    
     8.00   27.575    
     9.00   24.682    
    10.00   21.935    
    11.00   19.377    
    12.00   17.035    
    13.00   14.920    
    14.00   13.031    
    15.00   11.361    
    16.00   9.8971    
    17.00   8.6219    
    18.00   7.5178    
    19.00   6.5663    
    20.00   5.7496    
    21.00   5.0505    
    22.00   4.4534    
    23.00   3.9443    
    24.00   3.5103    
    25.00   3.1404    
    26.00   2.8249    
    27.00   2.5555    
    28.00   2.3249    
    29.00   2.1270    
    30.00   1.9565    
    31.00   1.8091    
    32.00   1.6811    
    33.00   1.5694    
    34.00   1.4713    
    35.00   1.3847    
    36.00   1.3078    
    37.00   1.2391    
    38.00   1.1773    
    39.00   1.1214    
    40.00   1.0705    
    41.00   1.0239    
    42.00  0.98109    
    43.00  0.94146    
    44.00  0.90464    
    45.00  0.87028    
    46.00  0.83811    
    47.00  0.80787    
    48.00  0.77936    
    49.00  0.75242    
    50.00  0.72690    
    51.00  0.70266    
    52.00  0.67962    
    53.00  0.65767    
    54.00  0.63674    
    55.00  0.61676    
    56.00  0.59767    
    57.00  0.57941    
    58.00  0.56193    
    59.00  0.54520    
    60.00  0.52917    
    61.00  0.51381    
    62.00  0.49909    
    63.00  0.48498    
    64.00  0.47145    
    65.00  0.45848    
    66.00  0.44604    
    67.00  0.43412    
    68.00  0.42269    
    69.00  0.41173    
    70.00  0.40123    
    71.00  0.39118    
    72.00  0.38154    
    73.00  0.37231    
    74.00  0.36348    
    75.00  0.35504    
    76.00  0.34696    
    77.00  0.33924    
    78.00  0.33187    
    79.00  0.32483    
    80.00  0.31812    
    81.00  0.31173    
    82.00  0.30563    
    83.00  0.29984    
    84.00  0.29433    
    85.00  0.28910    
    86.00  0.28414    
    87.00  0.27945    
    88.00  0.27501    
    89.00  0.27082    
    90.00  0.26686    
    91.00  0.26315    
    92.00  0.25966    
    93.00  0.25639    
    94.00  0.25333    
    95.00  0.25049    
    96.00  0.24784    
    97.00  0.24540    
    98.00  0.24314    
    99.00  0.24107    
   100.00  0.23918    
   101.00  0.23747    
   102.00  0.23592    
   103.00  0.23454    
   104.00  0.23332    
   105.00  0.23226    
   106.00  0.23135    
   107.00  0.23059    
   108.00  0.22997    
   109.00  0.22948    
   110.00  0.22914    
   111.00  0.22892    
   112.00  0.22883    
   113.00  0.22887    
   114.00  0.22902    
   115.00  0.22929    
   116.00  0.22968    
   117.00  0.23018    
   118.00  0.23079    
   119.00  0.23150    
   120.00  0.23232    
   121.00  0.23325    
   122.00  0.23427    
   123.00  0.23540    
   124.00  0.23663    
   125.00  0.23795    
   126.00  0.23938    
   127.00  0.24091    
   128.00  0.24253    
   129.00  0.24426    
   130.00  0.24608    
   131.00  0.24801    
   132.00  0.25004    
   133.00  0.25217    
   134.00  0.25441    
   135.00  0.25675    
   136.00  0.25918    
   137.00  0.26171    
   138.00  0.26432    
   139.00  0.26702    
   140.00  0.26979    
   141.00  0.27262    
   142.00  0.27549    
   143.00  0.27837    
   144.00  0.28125    
   145.00  0.28409    
   146.00  0.28685    
   147.00  0.28951    
   148.00  0.29202    
   149.00  0.29432    
   150.00  0.29639    
   151.00  0.29818    
   152.00  0.29964    
   153.00  0.30075    
   154.00  0.30149    
   155.00  0.30184    
   156.00  0.30183    
   157.00  0.30147    
   158.00  0.30083    
   159.00  0.29996    
   160.00  0.29897    
   161.00  0.29797    
   162.00  0.29709    
   163.00  0.29648    
   164.00  0.29625    
   165.00  0.29656    
   166.00  0.29751    
   167.00  0.29919    
   168.00  0.30164    
   169.00  0.30486    
   170.00  0.30880    
   171.00  0.31336    
   172.00  0.31838    
   173.00  0.32365    
   174.00  0.32896    
   175.00  0.33404    
   176.00  0.33863    
   177.00  0.34250    
   178.00  0.34543    
   179.00  0.34726    
   180.00  0.34788    
 |--------|------------|
0.560000     micron = Wavelength
0.175642     = Extinction efficiency (Q)
0.641829E-01 = Scattering efficiency (Qs)
0.111459     = Absorption efficiency (Qa)
 98.8530     = Lidar ratio
0.259482E-02 micron^2 = <b> = Average surface area per particle
0.455759E-03 microns^2 = Extinction cross section (C)
0.166543E-03 microns^2 = Scattering cross section (Cs)
0.289216E-03 microns^2 = Absorption cross section (Ca)
 |----------------------------------------------------|
 | COMMENTAIRES:                                      |
 |----------------------------------------------------|
 |   -Cross section / <b> should = efficiency         |
 |    is independant of the normalisation of dN/dx    |
 |   -The integral of the phase fct / 4 pi over all   |
 |    directions (solid angle) = 1.                   |
 |   -The volume coefficient (k) is equal to C * N    |
 |      = cross section * Number density              |
 |      typical units: [um^2]*[particles/cm^3] =      |
 |      [10^-3 km-1]                                  |
 |      N = M/(d*4/3*pi*r^3) where d is the density   |
 |      of particle, M is the mass per unit volume    |
 |      and 4/3*pi*r^3 is the average volume  of a    |
 |      particle.                                     |
 |      typical units:  M -> [ug/m^3], d -> [g/cm^3]  |
 |                      r -> [um]                     |
 |      Lidar ratio= 4 pi Qe / phase_fct(180)*Qs      |
 |----------------------------------------------------|
