 |--------|------------|
 | ANGLE  |  PHASE FCT |
 |--------|------------|
     0.00   73.921    
     1.00   69.491    
     2.00   58.081    
     3.00   43.984    
     4.00   31.160    
     5.00   21.483    
     6.00   14.928    
     7.00   10.699    
     8.00   8.0315    
     9.00   6.3791    
    10.00   5.3572    
    11.00   4.7099    
    12.00   4.2869    
    13.00   4.0008    
    14.00   3.7963    
    15.00   3.6407    
    16.00   3.5166    
    17.00   3.4132    
    18.00   3.3229    
    19.00   3.2418    
    20.00   3.1674    
    21.00   3.0979    
    22.00   3.0318    
    23.00   2.9684    
    24.00   2.9071    
    25.00   2.8474    
    26.00   2.7889    
    27.00   2.7315    
    28.00   2.6748    
    29.00   2.6187    
    30.00   2.5632    
    31.00   2.5082    
    32.00   2.4535    
    33.00   2.3993    
    34.00   2.3455    
    35.00   2.2920    
    36.00   2.2390    
    37.00   2.1863    
    38.00   2.1341    
    39.00   2.0824    
    40.00   2.0311    
    41.00   1.9804    
    42.00   1.9302    
    43.00   1.8807    
    44.00   1.8317    
    45.00   1.7835    
    46.00   1.7359    
    47.00   1.6890    
    48.00   1.6429    
    49.00   1.5975    
    50.00   1.5529    
    51.00   1.5092    
    52.00   1.4663    
    53.00   1.4243    
    54.00   1.3831    
    55.00   1.3428    
    56.00   1.3034    
    57.00   1.2649    
    58.00   1.2274    
    59.00   1.1907    
    60.00   1.1550    
    61.00   1.1202    
    62.00   1.0864    
    63.00   1.0534    
    64.00   1.0214    
    65.00  0.99035    
    66.00  0.96018    
    67.00  0.93092    
    68.00  0.90257    
    69.00  0.87510    
    70.00  0.84852    
    71.00  0.82281    
    72.00  0.79796    
    73.00  0.77396    
    74.00  0.75078    
    75.00  0.72843    
    76.00  0.70689    
    77.00  0.68613    
    78.00  0.66614    
    79.00  0.64692    
    80.00  0.62844    
    81.00  0.61068    
    82.00  0.59363    
    83.00  0.57727    
    84.00  0.56159    
    85.00  0.54656    
    86.00  0.53218    
    87.00  0.51842    
    88.00  0.50526    
    89.00  0.49270    
    90.00  0.48071    
    91.00  0.46927    
    92.00  0.45837    
    93.00  0.44800    
    94.00  0.43813    
    95.00  0.42876    
    96.00  0.41986    
    97.00  0.41142    
    98.00  0.40342    
    99.00  0.39586    
   100.00  0.38871    
   101.00  0.38196    
   102.00  0.37560    
   103.00  0.36961    
   104.00  0.36398    
   105.00  0.35870    
   106.00  0.35376    
   107.00  0.34913    
   108.00  0.34482    
   109.00  0.34080    
   110.00  0.33707    
   111.00  0.33361    
   112.00  0.33042    
   113.00  0.32748    
   114.00  0.32479    
   115.00  0.32232    
   116.00  0.32008    
   117.00  0.31806    
   118.00  0.31624    
   119.00  0.31461    
   120.00  0.31317    
   121.00  0.31191    
   122.00  0.31083    
   123.00  0.30990    
   124.00  0.30912    
   125.00  0.30850    
   126.00  0.30801    
   127.00  0.30766    
   128.00  0.30743    
   129.00  0.30731    
   130.00  0.30732    
   131.00  0.30742    
   132.00  0.30763    
   133.00  0.30793    
   134.00  0.30831    
   135.00  0.30878    
   136.00  0.30932    
   137.00  0.30994    
   138.00  0.31062    
   139.00  0.31136    
   140.00  0.31215    
   141.00  0.31299    
   142.00  0.31388    
   143.00  0.31481    
   144.00  0.31577    
   145.00  0.31676    
   146.00  0.31778    
   147.00  0.31883    
   148.00  0.31989    
   149.00  0.32096    
   150.00  0.32205    
   151.00  0.32315    
   152.00  0.32425    
   153.00  0.32535    
   154.00  0.32645    
   155.00  0.32754    
   156.00  0.32862    
   157.00  0.32969    
   158.00  0.33075    
   159.00  0.33178    
   160.00  0.33278    
   161.00  0.33375    
   162.00  0.33468    
   163.00  0.33556    
   164.00  0.33640    
   165.00  0.33718    
   166.00  0.33791    
   167.00  0.33859    
   168.00  0.33923    
   169.00  0.33982    
   170.00  0.34038    
   171.00  0.34090    
   172.00  0.34140    
   173.00  0.34186    
   174.00  0.34229    
   175.00  0.34268    
   176.00  0.34302    
   177.00  0.34331    
   178.00  0.34352    
   179.00  0.34365    
   180.00  0.34370    
 |--------|------------|
0.390000     micron = Wavelength
0.664292     = Extinction efficiency (Q)
0.340377     = Scattering efficiency (Qs)
0.323916     = Absorption efficiency (Qa)
 71.3557     = Lidar ratio
0.100518E-01 micron^2 = <b> = Average surface area per particle
0.667730E-02 microns^2 = Extinction cross section (C)
0.342138E-02 microns^2 = Scattering cross section (Cs)
0.325592E-02 microns^2 = Absorption cross section (Ca)
 |----------------------------------------------------|
 | COMMENTAIRES:                                      |
 |----------------------------------------------------|
 |   -Cross section / <b> should = efficiency         |
 |    is independant of the normalisation of dN/dx    |
 |   -The integral of the phase fct / 4 pi over all   |
 |    directions (solid angle) = 1.                   |
 |   -The volume coefficient (k) is equal to C * N    |
 |      = cross section * Number density              |
 |      typical units: [um^2]*[particles/cm^3] =      |
 |      [10^-3 km-1]                                  |
 |      N = M/(d*4/3*pi*r^3) where d is the density   |
 |      of particle, M is the mass per unit volume    |
 |      and 4/3*pi*r^3 is the average volume  of a    |
 |      particle.                                     |
 |      typical units:  M -> [ug/m^3], d -> [g/cm^3]  |
 |                      r -> [um]                     |
 |      Lidar ratio= 4 pi Qe / phase_fct(180)*Qs      |
 |----------------------------------------------------|
