 |--------|------------|
 | ANGLE  |  PHASE FCT |
 |--------|------------|
     0.00   36.561    
     1.00   36.330    
     2.00   35.648    
     3.00   34.555    
     4.00   33.108    
     5.00   31.379    
     6.00   29.444    
     7.00   27.377    
     8.00   25.248    
     9.00   23.115    
    10.00   21.028    
    11.00   19.025    
    12.00   17.132    
    13.00   15.368    
    14.00   13.742    
    15.00   12.259    
    16.00   10.916    
    17.00   9.7102    
    18.00   8.6334    
    19.00   7.6769    
    20.00   6.8309    
    21.00   6.0853    
    22.00   5.4301    
    23.00   4.8556    
    24.00   4.3528    
    25.00   3.9132    
    26.00   3.5291    
    27.00   3.1934    
    28.00   2.8999    
    29.00   2.6431    
    30.00   2.4180    
    31.00   2.2205    
    32.00   2.0467    
    33.00   1.8934    
    34.00   1.7577    
    35.00   1.6373    
    36.00   1.5300    
    37.00   1.4341    
    38.00   1.3480    
    39.00   1.2704    
    40.00   1.2002    
    41.00   1.1363    
    42.00   1.0781    
    43.00   1.0248    
    44.00  0.97579    
    45.00  0.93054    
    46.00  0.88865    
    47.00  0.84972    
    48.00  0.81346    
    49.00  0.77956    
    50.00  0.74781    
    51.00  0.71799    
    52.00  0.68993    
    53.00  0.66347    
    54.00  0.63848    
    55.00  0.61483    
    56.00  0.59243    
    57.00  0.57119    
    58.00  0.55102    
    59.00  0.53186    
    60.00  0.51363    
    61.00  0.49627    
    62.00  0.47974    
    63.00  0.46399    
    64.00  0.44897    
    65.00  0.43465    
    66.00  0.42099    
    67.00  0.40795    
    68.00  0.39551    
    69.00  0.38363    
    70.00  0.37228    
    71.00  0.36146    
    72.00  0.35112    
    73.00  0.34125    
    74.00  0.33183    
    75.00  0.32285    
    76.00  0.31427    
    77.00  0.30608    
    78.00  0.29828    
    79.00  0.29083    
    80.00  0.28374    
    81.00  0.27698    
    82.00  0.27054    
    83.00  0.26441    
    84.00  0.25858    
    85.00  0.25304    
    86.00  0.24778    
    87.00  0.24277    
    88.00  0.23803    
    89.00  0.23353    
    90.00  0.22928    
    91.00  0.22525    
    92.00  0.22144    
    93.00  0.21785    
    94.00  0.21447    
    95.00  0.21129    
    96.00  0.20830    
    97.00  0.20550    
    98.00  0.20288    
    99.00  0.20043    
   100.00  0.19816    
   101.00  0.19605    
   102.00  0.19409    
   103.00  0.19230    
   104.00  0.19065    
   105.00  0.18914    
   106.00  0.18778    
   107.00  0.18656    
   108.00  0.18547    
   109.00  0.18450    
   110.00  0.18367    
   111.00  0.18295    
   112.00  0.18236    
   113.00  0.18189    
   114.00  0.18153    
   115.00  0.18128    
   116.00  0.18114    
   117.00  0.18112    
   118.00  0.18120    
   119.00  0.18139    
   120.00  0.18168    
   121.00  0.18208    
   122.00  0.18258    
   123.00  0.18319    
   124.00  0.18390    
   125.00  0.18472    
   126.00  0.18564    
   127.00  0.18667    
   128.00  0.18780    
   129.00  0.18904    
   130.00  0.19038    
   131.00  0.19183    
   132.00  0.19338    
   133.00  0.19502    
   134.00  0.19677    
   135.00  0.19861    
   136.00  0.20054    
   137.00  0.20255    
   138.00  0.20462    
   139.00  0.20675    
   140.00  0.20891    
   141.00  0.21110    
   142.00  0.21327    
   143.00  0.21542    
   144.00  0.21751    
   145.00  0.21951    
   146.00  0.22137    
   147.00  0.22307    
   148.00  0.22456    
   149.00  0.22581    
   150.00  0.22678    
   151.00  0.22743    
   152.00  0.22776    
   153.00  0.22773    
   154.00  0.22735    
   155.00  0.22663    
   156.00  0.22560    
   157.00  0.22430    
   158.00  0.22280    
   159.00  0.22118    
   160.00  0.21955    
   161.00  0.21801    
   162.00  0.21669    
   163.00  0.21571    
   164.00  0.21520    
   165.00  0.21527    
   166.00  0.21599    
   167.00  0.21744    
   168.00  0.21962    
   169.00  0.22253    
   170.00  0.22611    
   171.00  0.23023    
   172.00  0.23475    
   173.00  0.23949    
   174.00  0.24424    
   175.00  0.24877    
   176.00  0.25284    
   177.00  0.25627    
   178.00  0.25886    
   179.00  0.26047    
   180.00  0.26101    
 |--------|------------|
0.640000     micron = Wavelength
0.163476     = Extinction efficiency (Q)
0.637033E-01 = Scattering efficiency (Qs)
0.997730E-01 = Absorption efficiency (Qa)
 123.549     = Lidar ratio
0.259481E-02 micron^2 = <b> = Average surface area per particle
0.424191E-03 microns^2 = Extinction cross section (C)
0.165298E-03 microns^2 = Scattering cross section (Cs)
0.258892E-03 microns^2 = Absorption cross section (Ca)
 |----------------------------------------------------|
 | COMMENTAIRES:                                      |
 |----------------------------------------------------|
 |   -Cross section / <b> should = efficiency         |
 |    is independant of the normalisation of dN/dx    |
 |   -The integral of the phase fct / 4 pi over all   |
 |    directions (solid angle) = 1.                   |
 |   -The volume coefficient (k) is equal to C * N    |
 |      = cross section * Number density              |
 |      typical units: [um^2]*[particles/cm^3] =      |
 |      [10^-3 km-1]                                  |
 |      N = M/(d*4/3*pi*r^3) where d is the density   |
 |      of particle, M is the mass per unit volume    |
 |      and 4/3*pi*r^3 is the average volume  of a    |
 |      particle.                                     |
 |      typical units:  M -> [ug/m^3], d -> [g/cm^3]  |
 |                      r -> [um]                     |
 |      Lidar ratio= 4 pi Qe / phase_fct(180)*Qs      |
 |----------------------------------------------------|
