 |--------|------------|
 | ANGLE  |  PHASE FCT |
 |--------|------------|
     0.00   78.900    
     1.00   71.609    
     2.00   53.878    
     3.00   34.560    
     4.00   20.391    
     5.00   12.657    
     6.00   9.1264    
     7.00   7.4530    
     8.00   6.5413    
     9.00   6.0427    
    10.00   5.7527    
    11.00   5.5357    
    12.00   5.3592    
    13.00   5.2185    
    14.00   5.0938    
    15.00   4.9741    
    16.00   4.8623    
    17.00   4.7567    
    18.00   4.6520    
    19.00   4.5481    
    20.00   4.4463    
    21.00   4.3449    
    22.00   4.2428    
    23.00   4.1411    
    24.00   4.0397    
    25.00   3.9381    
    26.00   3.8363    
    27.00   3.7349    
    28.00   3.6338    
    29.00   3.5330    
    30.00   3.4327    
    31.00   3.3332    
    32.00   3.2345    
    33.00   3.1367    
    34.00   3.0400    
    35.00   2.9446    
    36.00   2.8504    
    37.00   2.7577    
    38.00   2.6666    
    39.00   2.5771    
    40.00   2.4893    
    41.00   2.4034    
    42.00   2.3193    
    43.00   2.2371    
    44.00   2.1569    
    45.00   2.0787    
    46.00   2.0025    
    47.00   1.9284    
    48.00   1.8564    
    49.00   1.7864    
    50.00   1.7186    
    51.00   1.6529    
    52.00   1.5892    
    53.00   1.5276    
    54.00   1.4680    
    55.00   1.4105    
    56.00   1.3549    
    57.00   1.3013    
    58.00   1.2497    
    59.00   1.2000    
    60.00   1.1521    
    61.00   1.1060    
    62.00   1.0617    
    63.00   1.0192    
    64.00  0.97828    
    65.00  0.93905    
    66.00  0.90141    
    67.00  0.86532    
    68.00  0.83074    
    69.00  0.79760    
    70.00  0.76587    
    71.00  0.73551    
    72.00  0.70646    
    73.00  0.67867    
    74.00  0.65210    
    75.00  0.62672    
    76.00  0.60246    
    77.00  0.57930    
    78.00  0.55718    
    79.00  0.53607    
    80.00  0.51593    
    81.00  0.49672    
    82.00  0.47839    
    83.00  0.46092    
    84.00  0.44427    
    85.00  0.42840    
    86.00  0.41328    
    87.00  0.39888    
    88.00  0.38516    
    89.00  0.37211    
    90.00  0.35967    
    91.00  0.34784    
    92.00  0.33659    
    93.00  0.32588    
    94.00  0.31569    
    95.00  0.30601    
    96.00  0.29680    
    97.00  0.28805    
    98.00  0.27973    
    99.00  0.27183    
   100.00  0.26433    
   101.00  0.25721    
   102.00  0.25045    
   103.00  0.24403    
   104.00  0.23795    
   105.00  0.23218    
   106.00  0.22671    
   107.00  0.22153    
   108.00  0.21663    
   109.00  0.21199    
   110.00  0.20760    
   111.00  0.20345    
   112.00  0.19954    
   113.00  0.19584    
   114.00  0.19235    
   115.00  0.18907    
   116.00  0.18598    
   117.00  0.18308    
   118.00  0.18036    
   119.00  0.17780    
   120.00  0.17541    
   121.00  0.17318    
   122.00  0.17110    
   123.00  0.16916    
   124.00  0.16737    
   125.00  0.16571    
   126.00  0.16417    
   127.00  0.16276    
   128.00  0.16147    
   129.00  0.16030    
   130.00  0.15924    
   131.00  0.15828    
   132.00  0.15742    
   133.00  0.15666    
   134.00  0.15600    
   135.00  0.15543    
   136.00  0.15494    
   137.00  0.15454    
   138.00  0.15422    
   139.00  0.15397    
   140.00  0.15380    
   141.00  0.15370    
   142.00  0.15366    
   143.00  0.15369    
   144.00  0.15377    
   145.00  0.15392    
   146.00  0.15411    
   147.00  0.15436    
   148.00  0.15466    
   149.00  0.15499    
   150.00  0.15537    
   151.00  0.15579    
   152.00  0.15623    
   153.00  0.15671    
   154.00  0.15721    
   155.00  0.15774    
   156.00  0.15828    
   157.00  0.15885    
   158.00  0.15942    
   159.00  0.16000    
   160.00  0.16058    
   161.00  0.16117    
   162.00  0.16175    
   163.00  0.16233    
   164.00  0.16289    
   165.00  0.16344    
   166.00  0.16398    
   167.00  0.16449    
   168.00  0.16498    
   169.00  0.16544    
   170.00  0.16587    
   171.00  0.16627    
   172.00  0.16663    
   173.00  0.16696    
   174.00  0.16726    
   175.00  0.16751    
   176.00  0.16772    
   177.00  0.16789    
   178.00  0.16801    
   179.00  0.16808    
   180.00  0.16810    
 |--------|------------|
0.340000     micron = Wavelength
 1.15672     = Extinction efficiency (Q)
0.687259     = Scattering efficiency (Qs)
0.469461     = Absorption efficiency (Qa)
 125.817     = Lidar ratio
0.151083E-01 micron^2 = <b> = Average surface area per particle
0.174761E-01 microns^2 = Extinction cross section (C)
0.103834E-01 microns^2 = Scattering cross section (Cs)
0.709277E-02 microns^2 = Absorption cross section (Ca)
 |----------------------------------------------------|
 | COMMENTAIRES:                                      |
 |----------------------------------------------------|
 |   -Cross section / <b> should = efficiency         |
 |    is independant of the normalisation of dN/dx    |
 |   -The integral of the phase fct / 4 pi over all   |
 |    directions (solid angle) = 1.                   |
 |   -The volume coefficient (k) is equal to C * N    |
 |      = cross section * Number density              |
 |      typical units: [um^2]*[particles/cm^3] =      |
 |      [10^-3 km-1]                                  |
 |      N = M/(d*4/3*pi*r^3) where d is the density   |
 |      of particle, M is the mass per unit volume    |
 |      and 4/3*pi*r^3 is the average volume  of a    |
 |      particle.                                     |
 |      typical units:  M -> [ug/m^3], d -> [g/cm^3]  |
 |                      r -> [um]                     |
 |      Lidar ratio= 4 pi Qe / phase_fct(180)*Qs      |
 |----------------------------------------------------|
