 |--------|------------|
 | ANGLE  |  PHASE FCT |
 |--------|------------|
     0.00   67.170    
     1.00   65.376    
     2.00   60.399    
     3.00   53.262    
     4.00   45.185    
     5.00   37.189    
     6.00   29.931    
     7.00   23.722    
     8.00   18.633    
     9.00   14.592    
    10.00   11.457    
    11.00   9.0661    
    12.00   7.2647    
    13.00   5.9184    
    14.00   4.9165    
    15.00   4.1714    
    16.00   3.6162    
    17.00   3.2002    
    18.00   2.8856    
    19.00   2.6448    
    20.00   2.4577    
    21.00   2.3098    
    22.00   2.1905    
    23.00   2.0923    
    24.00   2.0096    
    25.00   1.9386    
    26.00   1.8764    
    27.00   1.8210    
    28.00   1.7708    
    29.00   1.7247    
    30.00   1.6820    
    31.00   1.6419    
    32.00   1.6040    
    33.00   1.5680    
    34.00   1.5334    
    35.00   1.5003    
    36.00   1.4682    
    37.00   1.4371    
    38.00   1.4069    
    39.00   1.3775    
    40.00   1.3487    
    41.00   1.3206    
    42.00   1.2932    
    43.00   1.2662    
    44.00   1.2397    
    45.00   1.2137    
    46.00   1.1882    
    47.00   1.1632    
    48.00   1.1385    
    49.00   1.1143    
    50.00   1.0905    
    51.00   1.0671    
    52.00   1.0441    
    53.00   1.0215    
    54.00  0.99931    
    55.00  0.97753    
    56.00  0.95617    
    57.00  0.93521    
    58.00  0.91469    
    59.00  0.89457    
    60.00  0.87487    
    61.00  0.85560    
    62.00  0.83676    
    63.00  0.81835    
    64.00  0.80038    
    65.00  0.78284    
    66.00  0.76575    
    67.00  0.74910    
    68.00  0.73290    
    69.00  0.71715    
    70.00  0.70184    
    71.00  0.68699    
    72.00  0.67258    
    73.00  0.65863    
    74.00  0.64512    
    75.00  0.63206    
    76.00  0.61946    
    77.00  0.60729    
    78.00  0.59557    
    79.00  0.58429    
    80.00  0.57345    
    81.00  0.56305    
    82.00  0.55307    
    83.00  0.54352    
    84.00  0.53440    
    85.00  0.52569    
    86.00  0.51739    
    87.00  0.50950    
    88.00  0.50202    
    89.00  0.49493    
    90.00  0.48822    
    91.00  0.48191    
    92.00  0.47596    
    93.00  0.47039    
    94.00  0.46518    
    95.00  0.46033    
    96.00  0.45582    
    97.00  0.45165    
    98.00  0.44781    
    99.00  0.44430    
   100.00  0.44111    
   101.00  0.43822    
   102.00  0.43563    
   103.00  0.43334    
   104.00  0.43132    
   105.00  0.42959    
   106.00  0.42812    
   107.00  0.42691    
   108.00  0.42595    
   109.00  0.42523    
   110.00  0.42474    
   111.00  0.42448    
   112.00  0.42444    
   113.00  0.42460    
   114.00  0.42497    
   115.00  0.42552    
   116.00  0.42626    
   117.00  0.42717    
   118.00  0.42825    
   119.00  0.42949    
   120.00  0.43088    
   121.00  0.43241    
   122.00  0.43408    
   123.00  0.43587    
   124.00  0.43779    
   125.00  0.43981    
   126.00  0.44194    
   127.00  0.44417    
   128.00  0.44649    
   129.00  0.44889    
   130.00  0.45136    
   131.00  0.45391    
   132.00  0.45652    
   133.00  0.45919    
   134.00  0.46190    
   135.00  0.46466    
   136.00  0.46746    
   137.00  0.47029    
   138.00  0.47315    
   139.00  0.47604    
   140.00  0.47894    
   141.00  0.48186    
   142.00  0.48480    
   143.00  0.48774    
   144.00  0.49069    
   145.00  0.49364    
   146.00  0.49659    
   147.00  0.49955    
   148.00  0.50249    
   149.00  0.50543    
   150.00  0.50836    
   151.00  0.51126    
   152.00  0.51413    
   153.00  0.51696    
   154.00  0.51973    
   155.00  0.52241    
   156.00  0.52501    
   157.00  0.52747    
   158.00  0.52980    
   159.00  0.53196    
   160.00  0.53395    
   161.00  0.53574    
   162.00  0.53735    
   163.00  0.53877    
   164.00  0.54004    
   165.00  0.54118    
   166.00  0.54223    
   167.00  0.54325    
   168.00  0.54428    
   169.00  0.54537    
   170.00  0.54655    
   171.00  0.54783    
   172.00  0.54922    
   173.00  0.55070    
   174.00  0.55221    
   175.00  0.55369    
   176.00  0.55506    
   177.00  0.55624    
   178.00  0.55715    
   179.00  0.55773    
   180.00  0.55792    
 |--------|------------|
0.360000     micron = Wavelength
0.333360     = Extinction efficiency (Q)
0.131440     = Scattering efficiency (Qs)
0.201920     = Absorption efficiency (Qa)
 57.1243     = Lidar ratio
0.352421E-02 micron^2 = <b> = Average surface area per particle
0.117483E-02 microns^2 = Extinction cross section (C)
0.463222E-03 microns^2 = Scattering cross section (Cs)
0.711608E-03 microns^2 = Absorption cross section (Ca)
 |----------------------------------------------------|
 | COMMENTAIRES:                                      |
 |----------------------------------------------------|
 |   -Cross section / <b> should = efficiency         |
 |    is independant of the normalisation of dN/dx    |
 |   -The integral of the phase fct / 4 pi over all   |
 |    directions (solid angle) = 1.                   |
 |   -The volume coefficient (k) is equal to C * N    |
 |      = cross section * Number density              |
 |      typical units: [um^2]*[particles/cm^3] =      |
 |      [10^-3 km-1]                                  |
 |      N = M/(d*4/3*pi*r^3) where d is the density   |
 |      of particle, M is the mass per unit volume    |
 |      and 4/3*pi*r^3 is the average volume  of a    |
 |      particle.                                     |
 |      typical units:  M -> [ug/m^3], d -> [g/cm^3]  |
 |                      r -> [um]                     |
 |      Lidar ratio= 4 pi Qe / phase_fct(180)*Qs      |
 |----------------------------------------------------|
