 |--------|------------|
 | ANGLE  |  PHASE FCT |
 |--------|------------|
     0.00   55.262    
     1.00   54.635    
     2.00   52.818    
     3.00   49.985    
     4.00   46.386    
     5.00   42.295    
     6.00   37.974    
     7.00   33.642    
     8.00   29.471    
     9.00   25.577    
    10.00   22.030    
    11.00   18.866    
    12.00   16.088    
    13.00   13.682    
    14.00   11.622    
    15.00   9.8739    
    16.00   8.4013    
    17.00   7.1684    
    18.00   6.1409    
    19.00   5.2876    
    20.00   4.5807    
    21.00   3.9956    
    22.00   3.5116    
    23.00   3.1109    
    24.00   2.7786    
    25.00   2.5021    
    26.00   2.2713    
    27.00   2.0776    
    28.00   1.9141    
    29.00   1.7753    
    30.00   1.6565    
    31.00   1.5540    
    32.00   1.4648    
    33.00   1.3865    
    34.00   1.3172    
    35.00   1.2553    
    36.00   1.1996    
    37.00   1.1490    
    38.00   1.1027    
    39.00   1.0601    
    40.00   1.0206    
    41.00  0.98384    
    42.00  0.94940    
    43.00  0.91703    
    44.00  0.88648    
    45.00  0.85756    
    46.00  0.83012    
    47.00  0.80401    
    48.00  0.77912    
    49.00  0.75536    
    50.00  0.73264    
    51.00  0.71089    
    52.00  0.69005    
    53.00  0.67007    
    54.00  0.65089    
    55.00  0.63248    
    56.00  0.61478    
    57.00  0.59779    
    58.00  0.58145    
    59.00  0.56574    
    60.00  0.55064    
    61.00  0.53612    
    62.00  0.52216    
    63.00  0.50873    
    64.00  0.49582    
    65.00  0.48340    
    66.00  0.47147    
    67.00  0.46001    
    68.00  0.44900    
    69.00  0.43843    
    70.00  0.42827    
    71.00  0.41853    
    72.00  0.40919    
    73.00  0.40024    
    74.00  0.39167    
    75.00  0.38346    
    76.00  0.37561    
    77.00  0.36810    
    78.00  0.36094    
    79.00  0.35411    
    80.00  0.34759    
    81.00  0.34139    
    82.00  0.33550    
    83.00  0.32991    
    84.00  0.32460    
    85.00  0.31958    
    86.00  0.31484    
    87.00  0.31037    
    88.00  0.30616    
    89.00  0.30221    
    90.00  0.29851    
    91.00  0.29506    
    92.00  0.29184    
    93.00  0.28886    
    94.00  0.28611    
    95.00  0.28358    
    96.00  0.28126    
    97.00  0.27916    
    98.00  0.27726    
    99.00  0.27556    
   100.00  0.27405    
   101.00  0.27273    
   102.00  0.27160    
   103.00  0.27064    
   104.00  0.26986    
   105.00  0.26925    
   106.00  0.26880    
   107.00  0.26851    
   108.00  0.26837    
   109.00  0.26838    
   110.00  0.26853    
   111.00  0.26882    
   112.00  0.26925    
   113.00  0.26980    
   114.00  0.27048    
   115.00  0.27128    
   116.00  0.27220    
   117.00  0.27322    
   118.00  0.27436    
   119.00  0.27559    
   120.00  0.27693    
   121.00  0.27836    
   122.00  0.27989    
   123.00  0.28150    
   124.00  0.28320    
   125.00  0.28498    
   126.00  0.28684    
   127.00  0.28878    
   128.00  0.29079    
   129.00  0.29288    
   130.00  0.29504    
   131.00  0.29727    
   132.00  0.29957    
   133.00  0.30194    
   134.00  0.30438    
   135.00  0.30690    
   136.00  0.30948    
   137.00  0.31214    
   138.00  0.31487    
   139.00  0.31766    
   140.00  0.32053    
   141.00  0.32347    
   142.00  0.32647    
   143.00  0.32953    
   144.00  0.33264    
   145.00  0.33579    
   146.00  0.33895    
   147.00  0.34212    
   148.00  0.34526    
   149.00  0.34835    
   150.00  0.35134    
   151.00  0.35420    
   152.00  0.35689    
   153.00  0.35934    
   154.00  0.36153    
   155.00  0.36340    
   156.00  0.36492    
   157.00  0.36606    
   158.00  0.36680    
   159.00  0.36716    
   160.00  0.36716    
   161.00  0.36686    
   162.00  0.36632    
   163.00  0.36564    
   164.00  0.36495    
   165.00  0.36436    
   166.00  0.36401    
   167.00  0.36402    
   168.00  0.36450    
   169.00  0.36551    
   170.00  0.36709    
   171.00  0.36922    
   172.00  0.37184    
   173.00  0.37483    
   174.00  0.37802    
   175.00  0.38122    
   176.00  0.38423    
   177.00  0.38683    
   178.00  0.38884    
   179.00  0.39011    
   180.00  0.39055    
 |--------|------------|
0.490000     micron = Wavelength
0.198085     = Extinction efficiency (Q)
0.679627E-01 = Scattering efficiency (Qs)
0.130122     = Absorption efficiency (Qa)
 93.7818     = Lidar ratio
0.272778E-02 micron^2 = <b> = Average surface area per particle
0.540331E-03 microns^2 = Extinction cross section (C)
0.185387E-03 microns^2 = Scattering cross section (Cs)
0.354944E-03 microns^2 = Absorption cross section (Ca)
 |----------------------------------------------------|
 | COMMENTAIRES:                                      |
 |----------------------------------------------------|
 |   -Cross section / <b> should = efficiency         |
 |    is independant of the normalisation of dN/dx    |
 |   -The integral of the phase fct / 4 pi over all   |
 |    directions (solid angle) = 1.                   |
 |   -The volume coefficient (k) is equal to C * N    |
 |      = cross section * Number density              |
 |      typical units: [um^2]*[particles/cm^3] =      |
 |      [10^-3 km-1]                                  |
 |      N = M/(d*4/3*pi*r^3) where d is the density   |
 |      of particle, M is the mass per unit volume    |
 |      and 4/3*pi*r^3 is the average volume  of a    |
 |      particle.                                     |
 |      typical units:  M -> [ug/m^3], d -> [g/cm^3]  |
 |                      r -> [um]                     |
 |      Lidar ratio= 4 pi Qe / phase_fct(180)*Qs      |
 |----------------------------------------------------|
