 |--------|------------|
 | ANGLE  |  PHASE FCT |
 |--------|------------|
     0.00   103.35    
     1.00   96.084    
     2.00   77.672    
     3.00   55.727    
     4.00   36.884    
     5.00   23.750    
     6.00   15.620    
     7.00   10.779    
     8.00   7.9156    
     9.00   6.2441    
    10.00   5.2609    
    11.00   4.6514    
    12.00   4.2535    
    13.00   3.9836    
    14.00   3.7868    
    15.00   3.6320    
    16.00   3.5061    
    17.00   3.4003    
    18.00   3.3067    
    19.00   3.2221    
    20.00   3.1451    
    21.00   3.0732    
    22.00   3.0049    
    23.00   2.9398    
    24.00   2.8772    
    25.00   2.8163    
    26.00   2.7568    
    27.00   2.6985    
    28.00   2.6412    
    29.00   2.5845    
    30.00   2.5284    
    31.00   2.4730    
    32.00   2.4180    
    33.00   2.3635    
    34.00   2.3094    
    35.00   2.2558    
    36.00   2.2025    
    37.00   2.1498    
    38.00   2.0975    
    39.00   2.0458    
    40.00   1.9946    
    41.00   1.9439    
    42.00   1.8939    
    43.00   1.8444    
    44.00   1.7956    
    45.00   1.7476    
    46.00   1.7002    
    47.00   1.6536    
    48.00   1.6077    
    49.00   1.5627    
    50.00   1.5184    
    51.00   1.4750    
    52.00   1.4325    
    53.00   1.3908    
    54.00   1.3500    
    55.00   1.3102    
    56.00   1.2712    
    57.00   1.2331    
    58.00   1.1960    
    59.00   1.1598    
    60.00   1.1246    
    61.00   1.0903    
    62.00   1.0569    
    63.00   1.0244    
    64.00  0.99291    
    65.00  0.96231    
    66.00  0.93263    
    67.00  0.90385    
    68.00  0.87598    
    69.00  0.84900    
    70.00  0.82289    
    71.00  0.79765    
    72.00  0.77327    
    73.00  0.74973    
    74.00  0.72702    
    75.00  0.70512    
    76.00  0.68401    
    77.00  0.66369    
    78.00  0.64413    
    79.00  0.62533    
    80.00  0.60725    
    81.00  0.58989    
    82.00  0.57323    
    83.00  0.55724    
    84.00  0.54193    
    85.00  0.52726    
    86.00  0.51321    
    87.00  0.49979    
    88.00  0.48695    
    89.00  0.47469    
    90.00  0.46300    
    91.00  0.45184    
    92.00  0.44122    
    93.00  0.43111    
    94.00  0.42149    
    95.00  0.41235    
    96.00  0.40368    
    97.00  0.39545    
    98.00  0.38766    
    99.00  0.38028    
   100.00  0.37331    
   101.00  0.36673    
   102.00  0.36053    
   103.00  0.35469    
   104.00  0.34920    
   105.00  0.34404    
   106.00  0.33921    
   107.00  0.33469    
   108.00  0.33047    
   109.00  0.32654    
   110.00  0.32289    
   111.00  0.31950    
   112.00  0.31637    
   113.00  0.31349    
   114.00  0.31084    
   115.00  0.30841    
   116.00  0.30620    
   117.00  0.30420    
   118.00  0.30239    
   119.00  0.30078    
   120.00  0.29934    
   121.00  0.29808    
   122.00  0.29698    
   123.00  0.29604    
   124.00  0.29525    
   125.00  0.29459    
   126.00  0.29408    
   127.00  0.29369    
   128.00  0.29342    
   129.00  0.29327    
   130.00  0.29323    
   131.00  0.29328    
   132.00  0.29344    
   133.00  0.29368    
   134.00  0.29401    
   135.00  0.29442    
   136.00  0.29490    
   137.00  0.29545    
   138.00  0.29607    
   139.00  0.29674    
   140.00  0.29746    
   141.00  0.29824    
   142.00  0.29905    
   143.00  0.29991    
   144.00  0.30080    
   145.00  0.30172    
   146.00  0.30267    
   147.00  0.30364    
   148.00  0.30463    
   149.00  0.30564    
   150.00  0.30665    
   151.00  0.30767    
   152.00  0.30870    
   153.00  0.30973    
   154.00  0.31075    
   155.00  0.31177    
   156.00  0.31278    
   157.00  0.31379    
   158.00  0.31477    
   159.00  0.31574    
   160.00  0.31668    
   161.00  0.31760    
   162.00  0.31848    
   163.00  0.31932    
   164.00  0.32012    
   165.00  0.32087    
   166.00  0.32158    
   167.00  0.32223    
   168.00  0.32284    
   169.00  0.32341    
   170.00  0.32393    
   171.00  0.32442    
   172.00  0.32488    
   173.00  0.32531    
   174.00  0.32570    
   175.00  0.32605    
   176.00  0.32636    
   177.00  0.32662    
   178.00  0.32681    
   179.00  0.32693    
   180.00  0.32697    
 |--------|------------|
0.470000     micron = Wavelength
0.678198     = Extinction efficiency (Q)
0.348615     = Scattering efficiency (Qs)
0.329582     = Absorption efficiency (Qa)
 74.7672     = Lidar ratio
0.151561E-01 micron^2 = <b> = Average surface area per particle
0.102788E-01 microns^2 = Extinction cross section (C)
0.528365E-02 microns^2 = Scattering cross section (Cs)
0.499519E-02 microns^2 = Absorption cross section (Ca)
 |----------------------------------------------------|
 | COMMENTAIRES:                                      |
 |----------------------------------------------------|
 |   -Cross section / <b> should = efficiency         |
 |    is independant of the normalisation of dN/dx    |
 |   -The integral of the phase fct / 4 pi over all   |
 |    directions (solid angle) = 1.                   |
 |   -The volume coefficient (k) is equal to C * N    |
 |      = cross section * Number density              |
 |      typical units: [um^2]*[particles/cm^3] =      |
 |      [10^-3 km-1]                                  |
 |      N = M/(d*4/3*pi*r^3) where d is the density   |
 |      of particle, M is the mass per unit volume    |
 |      and 4/3*pi*r^3 is the average volume  of a    |
 |      particle.                                     |
 |      typical units:  M -> [ug/m^3], d -> [g/cm^3]  |
 |                      r -> [um]                     |
 |      Lidar ratio= 4 pi Qe / phase_fct(180)*Qs      |
 |----------------------------------------------------|
