 |--------|------------|
 | ANGLE  |  PHASE FCT |
 |--------|------------|
     0.00   57.130    
     1.00   56.084    
     2.00   53.114    
     3.00   48.663    
     4.00   43.307    
     5.00   37.608    
     6.00   32.011    
     7.00   26.821    
     8.00   22.206    
     9.00   18.235    
    10.00   14.901    
    11.00   12.158    
    12.00   9.9337    
    13.00   8.1519    
    14.00   6.7374    
    15.00   5.6218    
    16.00   4.7458    
    17.00   4.0596    
    18.00   3.5222    
    19.00   3.1009    
    20.00   2.7695    
    21.00   2.5073    
    22.00   2.2984    
    23.00   2.1305    
    24.00   1.9941    
    25.00   1.8818    
    26.00   1.7882    
    27.00   1.7089    
    28.00   1.6409    
    29.00   1.5815    
    30.00   1.5290    
    31.00   1.4819    
    32.00   1.4391    
    33.00   1.3998    
    34.00   1.3634    
    35.00   1.3293    
    36.00   1.2971    
    37.00   1.2666    
    38.00   1.2375    
    39.00   1.2097    
    40.00   1.1828    
    41.00   1.1570    
    42.00   1.1319    
    43.00   1.1076    
    44.00   1.0840    
    45.00   1.0610    
    46.00   1.0386    
    47.00   1.0167    
    48.00  0.99541    
    49.00  0.97455    
    50.00  0.95415    
    51.00  0.93421    
    52.00  0.91469    
    53.00  0.89560    
    54.00  0.87690    
    55.00  0.85863    
    56.00  0.84075    
    57.00  0.82326    
    58.00  0.80616    
    59.00  0.78944    
    60.00  0.77310    
    61.00  0.75715    
    62.00  0.74158    
    63.00  0.72639    
    64.00  0.71158    
    65.00  0.69715    
    66.00  0.68310    
    67.00  0.66943    
    68.00  0.65614    
    69.00  0.64324    
    70.00  0.63071    
    71.00  0.61856    
    72.00  0.60680    
    73.00  0.59541    
    74.00  0.58441    
    75.00  0.57378    
    76.00  0.56353    
    77.00  0.55366    
    78.00  0.54416    
    79.00  0.53504    
    80.00  0.52628    
    81.00  0.51790    
    82.00  0.50988    
    83.00  0.50222    
    84.00  0.49493    
    85.00  0.48799    
    86.00  0.48140    
    87.00  0.47517    
    88.00  0.46928    
    89.00  0.46373    
    90.00  0.45852    
    91.00  0.45365    
    92.00  0.44910    
    93.00  0.44487    
    94.00  0.44096    
    95.00  0.43735    
    96.00  0.43406    
    97.00  0.43107    
    98.00  0.42836    
    99.00  0.42595    
   100.00  0.42382    
   101.00  0.42196    
   102.00  0.42037    
   103.00  0.41904    
   104.00  0.41797    
   105.00  0.41714    
   106.00  0.41655    
   107.00  0.41620    
   108.00  0.41608    
   109.00  0.41617    
   110.00  0.41648    
   111.00  0.41699    
   112.00  0.41770    
   113.00  0.41860    
   114.00  0.41968    
   115.00  0.42094    
   116.00  0.42237    
   117.00  0.42396    
   118.00  0.42570    
   119.00  0.42759    
   120.00  0.42962    
   121.00  0.43178    
   122.00  0.43406    
   123.00  0.43646    
   124.00  0.43898    
   125.00  0.44160    
   126.00  0.44432    
   127.00  0.44713    
   128.00  0.45003    
   129.00  0.45300    
   130.00  0.45605    
   131.00  0.45917    
   132.00  0.46235    
   133.00  0.46559    
   134.00  0.46889    
   135.00  0.47223    
   136.00  0.47562    
   137.00  0.47906    
   138.00  0.48254    
   139.00  0.48605    
   140.00  0.48960    
   141.00  0.49318    
   142.00  0.49679    
   143.00  0.50042    
   144.00  0.50407    
   145.00  0.50773    
   146.00  0.51140    
   147.00  0.51506    
   148.00  0.51869    
   149.00  0.52229    
   150.00  0.52582    
   151.00  0.52927    
   152.00  0.53263    
   153.00  0.53584    
   154.00  0.53890    
   155.00  0.54178    
   156.00  0.54445    
   157.00  0.54690    
   158.00  0.54913    
   159.00  0.55114    
   160.00  0.55294    
   161.00  0.55458    
   162.00  0.55608    
   163.00  0.55751    
   164.00  0.55893    
   165.00  0.56041    
   166.00  0.56201    
   167.00  0.56381    
   168.00  0.56583    
   169.00  0.56812    
   170.00  0.57066    
   171.00  0.57345    
   172.00  0.57641    
   173.00  0.57946    
   174.00  0.58251    
   175.00  0.58540    
   176.00  0.58802    
   177.00  0.59022    
   178.00  0.59190    
   179.00  0.59294    
   180.00  0.59330    
 |--------|------------|
0.370000     micron = Wavelength
0.268776     = Extinction efficiency (Q)
0.101717     = Scattering efficiency (Qs)
0.167058     = Absorption efficiency (Qa)
 55.9671     = Lidar ratio
0.259480E-02 micron^2 = <b> = Average surface area per particle
0.697420E-03 microns^2 = Extinction cross section (C)
0.263936E-03 microns^2 = Scattering cross section (Cs)
0.433484E-03 microns^2 = Absorption cross section (Ca)
 |----------------------------------------------------|
 | COMMENTAIRES:                                      |
 |----------------------------------------------------|
 |   -Cross section / <b> should = efficiency         |
 |    is independant of the normalisation of dN/dx    |
 |   -The integral of the phase fct / 4 pi over all   |
 |    directions (solid angle) = 1.                   |
 |   -The volume coefficient (k) is equal to C * N    |
 |      = cross section * Number density              |
 |      typical units: [um^2]*[particles/cm^3] =      |
 |      [10^-3 km-1]                                  |
 |      N = M/(d*4/3*pi*r^3) where d is the density   |
 |      of particle, M is the mass per unit volume    |
 |      and 4/3*pi*r^3 is the average volume  of a    |
 |      particle.                                     |
 |      typical units:  M -> [ug/m^3], d -> [g/cm^3]  |
 |                      r -> [um]                     |
 |      Lidar ratio= 4 pi Qe / phase_fct(180)*Qs      |
 |----------------------------------------------------|
