 |--------|------------|
 | ANGLE  |  PHASE FCT |
 |--------|------------|
     0.00   89.980    
     1.00   87.304    
     2.00   79.930    
     3.00   69.501    
     4.00   57.921    
     5.00   46.714    
     6.00   36.788    
     7.00   28.504    
     8.00   21.878    
     9.00   16.742    
    10.00   12.850    
    11.00   9.9475    
    12.00   7.8069    
    13.00   6.2389    
    14.00   5.0936    
    15.00   4.2561    
    16.00   3.6413    
    17.00   3.1863    
    18.00   2.8458    
    19.00   2.5872    
    20.00   2.3874    
    21.00   2.2300    
    22.00   2.1033    
    23.00   1.9991    
    24.00   1.9115    
    25.00   1.8364    
    26.00   1.7707    
    27.00   1.7125    
    28.00   1.6600    
    29.00   1.6120    
    30.00   1.5678    
    31.00   1.5266    
    32.00   1.4880    
    33.00   1.4515    
    34.00   1.4168    
    35.00   1.3838    
    36.00   1.3520    
    37.00   1.3214    
    38.00   1.2919    
    39.00   1.2633    
    40.00   1.2355    
    41.00   1.2085    
    42.00   1.1822    
    43.00   1.1565    
    44.00   1.1314    
    45.00   1.1068    
    46.00   1.0828    
    47.00   1.0592    
    48.00   1.0362    
    49.00   1.0136    
    50.00  0.99140    
    51.00  0.96966    
    52.00  0.94835    
    53.00  0.92746    
    54.00  0.90698    
    55.00  0.88693    
    56.00  0.86728    
    57.00  0.84804    
    58.00  0.82922    
    59.00  0.81081    
    60.00  0.79281    
    61.00  0.77522    
    62.00  0.75805    
    63.00  0.74130    
    64.00  0.72497    
    65.00  0.70904    
    66.00  0.69355    
    67.00  0.67847    
    68.00  0.66381    
    69.00  0.64957    
    70.00  0.63575    
    71.00  0.62235    
    72.00  0.60937    
    73.00  0.59681    
    74.00  0.58467    
    75.00  0.57294    
    76.00  0.56163    
    77.00  0.55072    
    78.00  0.54022    
    79.00  0.53014    
    80.00  0.52045    
    81.00  0.51117    
    82.00  0.50227    
    83.00  0.49377    
    84.00  0.48565    
    85.00  0.47792    
    86.00  0.47056    
    87.00  0.46357    
    88.00  0.45695    
    89.00  0.45069    
    90.00  0.44478    
    91.00  0.43922    
    92.00  0.43400    
    93.00  0.42911    
    94.00  0.42456    
    95.00  0.42032    
    96.00  0.41640    
    97.00  0.41279    
    98.00  0.40948    
    99.00  0.40646    
   100.00  0.40373    
   101.00  0.40127    
   102.00  0.39909    
   103.00  0.39717    
   104.00  0.39551    
   105.00  0.39409    
   106.00  0.39291    
   107.00  0.39197    
   108.00  0.39125    
   109.00  0.39075    
   110.00  0.39046    
   111.00  0.39037    
   112.00  0.39047    
   113.00  0.39077    
   114.00  0.39123    
   115.00  0.39188    
   116.00  0.39268    
   117.00  0.39364    
   118.00  0.39476    
   119.00  0.39601    
   120.00  0.39740    
   121.00  0.39891    
   122.00  0.40055    
   123.00  0.40230    
   124.00  0.40415    
   125.00  0.40610    
   126.00  0.40815    
   127.00  0.41029    
   128.00  0.41250    
   129.00  0.41479    
   130.00  0.41714    
   131.00  0.41956    
   132.00  0.42203    
   133.00  0.42455    
   134.00  0.42711    
   135.00  0.42971    
   136.00  0.43234    
   137.00  0.43500    
   138.00  0.43769    
   139.00  0.44039    
   140.00  0.44311    
   141.00  0.44584    
   142.00  0.44858    
   143.00  0.45132    
   144.00  0.45406    
   145.00  0.45682    
   146.00  0.45957    
   147.00  0.46232    
   148.00  0.46507    
   149.00  0.46783    
   150.00  0.47058    
   151.00  0.47333    
   152.00  0.47607    
   153.00  0.47880    
   154.00  0.48149    
   155.00  0.48414    
   156.00  0.48672    
   157.00  0.48920    
   158.00  0.49156    
   159.00  0.49376    
   160.00  0.49578    
   161.00  0.49757    
   162.00  0.49913    
   163.00  0.50045    
   164.00  0.50153    
   165.00  0.50239    
   166.00  0.50309    
   167.00  0.50369    
   168.00  0.50425    
   169.00  0.50485    
   170.00  0.50556    
   171.00  0.50642    
   172.00  0.50748    
   173.00  0.50870    
   174.00  0.51007    
   175.00  0.51149    
   176.00  0.51288    
   177.00  0.51412    
   178.00  0.51511    
   179.00  0.51574    
   180.00  0.51596    
 |--------|------------|
0.616000     micron = Wavelength
0.317013     = Extinction efficiency (Q)
0.122927     = Scattering efficiency (Qs)
0.194087     = Absorption efficiency (Qa)
 62.8097     = Lidar ratio
0.100547E-01 micron^2 = <b> = Average surface area per particle
0.318747E-02 microns^2 = Extinction cross section (C)
0.123599E-02 microns^2 = Scattering cross section (Cs)
0.195148E-02 microns^2 = Absorption cross section (Ca)
 |----------------------------------------------------|
 | COMMENTAIRES:                                      |
 |----------------------------------------------------|
 |   -Cross section / <b> should = efficiency         |
 |    is independant of the normalisation of dN/dx    |
 |   -The integral of the phase fct / 4 pi over all   |
 |    directions (solid angle) = 1.                   |
 |   -The volume coefficient (k) is equal to C * N    |
 |      = cross section * Number density              |
 |      typical units: [um^2]*[particles/cm^3] =      |
 |      [10^-3 km-1]                                  |
 |      N = M/(d*4/3*pi*r^3) where d is the density   |
 |      of particle, M is the mass per unit volume    |
 |      and 4/3*pi*r^3 is the average volume  of a    |
 |      particle.                                     |
 |      typical units:  M -> [ug/m^3], d -> [g/cm^3]  |
 |                      r -> [um]                     |
 |      Lidar ratio= 4 pi Qe / phase_fct(180)*Qs      |
 |----------------------------------------------------|
