 |--------|------------|
 | ANGLE  |  PHASE FCT |
 |--------|------------|
     0.00   123.78    
     1.00   119.10    
     2.00   106.47    
     3.00   89.238    
     4.00   71.064    
     5.00   54.532    
     6.00   40.822    
     7.00   30.110    
     8.00   22.074    
     9.00   16.220    
    10.00   12.040    
    11.00   9.0904    
    12.00   7.0227    
    13.00   5.5754    
    14.00   4.5584    
    15.00   3.8371    
    16.00   3.3190    
    17.00   2.9403    
    18.00   2.6575    
    19.00   2.4411    
    20.00   2.2714    
    21.00   2.1350    
    22.00   2.0225    
    23.00   1.9278    
    24.00   1.8465    
    25.00   1.7754    
    26.00   1.7123    
    27.00   1.6556    
    28.00   1.6042    
    29.00   1.5570    
    30.00   1.5133    
    31.00   1.4727    
    32.00   1.4346    
    33.00   1.3986    
    34.00   1.3645    
    35.00   1.3320    
    36.00   1.3009    
    37.00   1.2711    
    38.00   1.2422    
    39.00   1.2144    
    40.00   1.1874    
    41.00   1.1611    
    42.00   1.1356    
    43.00   1.1106    
    44.00   1.0863    
    45.00   1.0625    
    46.00   1.0392    
    47.00   1.0164    
    48.00  0.99407    
    49.00  0.97218    
    50.00  0.95072    
    51.00  0.92967    
    52.00  0.90905    
    53.00  0.88883    
    54.00  0.86901    
    55.00  0.84959    
    56.00  0.83057    
    57.00  0.81196    
    58.00  0.79373    
    59.00  0.77591    
    60.00  0.75848    
    61.00  0.74145    
    62.00  0.72482    
    63.00  0.70860    
    64.00  0.69278    
    65.00  0.67736    
    66.00  0.66235    
    67.00  0.64775    
    68.00  0.63354    
    69.00  0.61975    
    70.00  0.60636    
    71.00  0.59338    
    72.00  0.58080    
    73.00  0.56862    
    74.00  0.55685    
    75.00  0.54548    
    76.00  0.53451    
    77.00  0.52393    
    78.00  0.51375    
    79.00  0.50395    
    80.00  0.49455    
    81.00  0.48553    
    82.00  0.47689    
    83.00  0.46862    
    84.00  0.46073    
    85.00  0.45320    
    86.00  0.44603    
    87.00  0.43922    
    88.00  0.43276    
    89.00  0.42664    
    90.00  0.42087    
    91.00  0.41542    
    92.00  0.41030    
    93.00  0.40551    
    94.00  0.40103    
    95.00  0.39685    
    96.00  0.39298    
    97.00  0.38940    
    98.00  0.38610    
    99.00  0.38309    
   100.00  0.38035    
   101.00  0.37787    
   102.00  0.37565    
   103.00  0.37368    
   104.00  0.37196    
   105.00  0.37047    
   106.00  0.36921    
   107.00  0.36817    
   108.00  0.36734    
   109.00  0.36672    
   110.00  0.36630    
   111.00  0.36607    
   112.00  0.36602    
   113.00  0.36615    
   114.00  0.36645    
   115.00  0.36692    
   116.00  0.36754    
   117.00  0.36830    
   118.00  0.36921    
   119.00  0.37025    
   120.00  0.37142    
   121.00  0.37271    
   122.00  0.37411    
   123.00  0.37562    
   124.00  0.37724    
   125.00  0.37894    
   126.00  0.38074    
   127.00  0.38261    
   128.00  0.38456    
   129.00  0.38658    
   130.00  0.38867    
   131.00  0.39081    
   132.00  0.39301    
   133.00  0.39525    
   134.00  0.39753    
   135.00  0.39985    
   136.00  0.40220    
   137.00  0.40457    
   138.00  0.40697    
   139.00  0.40938    
   140.00  0.41180    
   141.00  0.41423    
   142.00  0.41667    
   143.00  0.41910    
   144.00  0.42154    
   145.00  0.42397    
   146.00  0.42639    
   147.00  0.42881    
   148.00  0.43123    
   149.00  0.43364    
   150.00  0.43604    
   151.00  0.43844    
   152.00  0.44083    
   153.00  0.44322    
   154.00  0.44558    
   155.00  0.44793    
   156.00  0.45024    
   157.00  0.45249    
   158.00  0.45466    
   159.00  0.45673    
   160.00  0.45865    
   161.00  0.46041    
   162.00  0.46198    
   163.00  0.46333    
   164.00  0.46446    
   165.00  0.46538    
   166.00  0.46613    
   167.00  0.46673    
   168.00  0.46726    
   169.00  0.46779    
   170.00  0.46837    
   171.00  0.46906    
   172.00  0.46990    
   173.00  0.47090    
   174.00  0.47203    
   175.00  0.47323    
   176.00  0.47442    
   177.00  0.47549    
   178.00  0.47635    
   179.00  0.47691    
   180.00  0.47710    
 |--------|------------|
0.730000     micron = Wavelength
0.343609     = Extinction efficiency (Q)
0.137205     = Scattering efficiency (Qs)
0.206404     = Absorption efficiency (Qa)
 65.9623     = Lidar ratio
0.151673E-01 micron^2 = <b> = Average surface area per particle
0.521161E-02 microns^2 = Extinction cross section (C)
0.208103E-02 microns^2 = Scattering cross section (Cs)
0.313058E-02 microns^2 = Absorption cross section (Ca)
 |----------------------------------------------------|
 | COMMENTAIRES:                                      |
 |----------------------------------------------------|
 |   -Cross section / <b> should = efficiency         |
 |    is independant of the normalisation of dN/dx    |
 |   -The integral of the phase fct / 4 pi over all   |
 |    directions (solid angle) = 1.                   |
 |   -The volume coefficient (k) is equal to C * N    |
 |      = cross section * Number density              |
 |      typical units: [um^2]*[particles/cm^3] =      |
 |      [10^-3 km-1]                                  |
 |      N = M/(d*4/3*pi*r^3) where d is the density   |
 |      of particle, M is the mass per unit volume    |
 |      and 4/3*pi*r^3 is the average volume  of a    |
 |      particle.                                     |
 |      typical units:  M -> [ug/m^3], d -> [g/cm^3]  |
 |                      r -> [um]                     |
 |      Lidar ratio= 4 pi Qe / phase_fct(180)*Qs      |
 |----------------------------------------------------|
