 |--------|------------|
 | ANGLE  |  PHASE FCT |
 |--------|------------|
     0.00   42.276    
     1.00   41.949    
     2.00   40.990    
     3.00   39.464    
     4.00   37.468    
     5.00   35.116    
     6.00   32.528    
     7.00   29.814    
     8.00   27.073    
     9.00   24.386    
    10.00   21.813    
    11.00   19.397    
    12.00   17.166    
    13.00   15.133    
    14.00   13.302    
    15.00   11.669    
    16.00   10.225    
    17.00   8.9566    
    18.00   7.8493    
    19.00   6.8872    
    20.00   6.0547    
    21.00   5.3364    
    22.00   4.7183    
    23.00   4.1873    
    24.00   3.7315    
    25.00   3.3404    
    26.00   3.0047    
    27.00   2.7162    
    28.00   2.4680    
    29.00   2.2540    
    30.00   2.0689    
    31.00   1.9082    
    32.00   1.7683    
    33.00   1.6459    
    34.00   1.5383    
    35.00   1.4432    
    36.00   1.3588    
    37.00   1.2834    
    38.00   1.2156    
    39.00   1.1545    
    40.00   1.0990    
    41.00   1.0483    
    42.00   1.0018    
    43.00  0.95888    
    44.00  0.91916    
    45.00  0.88224    
    46.00  0.84777    
    47.00  0.81548    
    48.00  0.78514    
    49.00  0.75656    
    50.00  0.72956    
    51.00  0.70400    
    52.00  0.67977    
    53.00  0.65675    
    54.00  0.63485    
    55.00  0.61399    
    56.00  0.59410    
    57.00  0.57512    
    58.00  0.55700    
    59.00  0.53968    
    60.00  0.52312    
    61.00  0.50727    
    62.00  0.49212    
    63.00  0.47761    
    64.00  0.46372    
    65.00  0.45041    
    66.00  0.43768    
    67.00  0.42548    
    68.00  0.41381    
    69.00  0.40263    
    70.00  0.39193    
    71.00  0.38168    
    72.00  0.37188    
    73.00  0.36250    
    74.00  0.35353    
    75.00  0.34496    
    76.00  0.33676    
    77.00  0.32893    
    78.00  0.32146    
    79.00  0.31432    
    80.00  0.30752    
    81.00  0.30104    
    82.00  0.29486    
    83.00  0.28899    
    84.00  0.28340    
    85.00  0.27810    
    86.00  0.27307    
    87.00  0.26830    
    88.00  0.26378    
    89.00  0.25951    
    90.00  0.25548    
    91.00  0.25168    
    92.00  0.24811    
    93.00  0.24476    
    94.00  0.24162    
    95.00  0.23868    
    96.00  0.23595    
    97.00  0.23340    
    98.00  0.23105    
    99.00  0.22887    
   100.00  0.22688    
   101.00  0.22505    
   102.00  0.22339    
   103.00  0.22190    
   104.00  0.22056    
   105.00  0.21937    
   106.00  0.21833    
   107.00  0.21743    
   108.00  0.21668    
   109.00  0.21606    
   110.00  0.21557    
   111.00  0.21521    
   112.00  0.21497    
   113.00  0.21486    
   114.00  0.21486    
   115.00  0.21499    
   116.00  0.21522    
   117.00  0.21556    
   118.00  0.21602    
   119.00  0.21658    
   120.00  0.21724    
   121.00  0.21801    
   122.00  0.21888    
   123.00  0.21986    
   124.00  0.22093    
   125.00  0.22211    
   126.00  0.22339    
   127.00  0.22477    
   128.00  0.22626    
   129.00  0.22784    
   130.00  0.22953    
   131.00  0.23133    
   132.00  0.23323    
   133.00  0.23523    
   134.00  0.23734    
   135.00  0.23954    
   136.00  0.24185    
   137.00  0.24425    
   138.00  0.24673    
   139.00  0.24930    
   140.00  0.25192    
   141.00  0.25460    
   142.00  0.25731    
   143.00  0.26003    
   144.00  0.26272    
   145.00  0.26536    
   146.00  0.26792    
   147.00  0.27035    
   148.00  0.27260    
   149.00  0.27465    
   150.00  0.27644    
   151.00  0.27794    
   152.00  0.27910    
   153.00  0.27991    
   154.00  0.28033    
   155.00  0.28038    
   156.00  0.28007    
   157.00  0.27943    
   158.00  0.27852    
   159.00  0.27741    
   160.00  0.27620    
   161.00  0.27502    
   162.00  0.27398    
   163.00  0.27323    
   164.00  0.27291    
   165.00  0.27315    
   166.00  0.27404    
   167.00  0.27568    
   168.00  0.27810    
   169.00  0.28129    
   170.00  0.28521    
   171.00  0.28973    
   172.00  0.29471    
   173.00  0.29995    
   174.00  0.30520    
   175.00  0.31023    
   176.00  0.31477    
   177.00  0.31860    
   178.00  0.32149    
   179.00  0.32329    
   180.00  0.32391    
 |--------|------------|
0.580000     micron = Wavelength
0.171751     = Extinction efficiency (Q)
0.637885E-01 = Scattering efficiency (Qs)
0.107962     = Absorption efficiency (Qa)
 104.459     = Lidar ratio
0.259482E-02 micron^2 = <b> = Average surface area per particle
0.445662E-03 microns^2 = Extinction cross section (C)
0.165520E-03 microns^2 = Scattering cross section (Cs)
0.280143E-03 microns^2 = Absorption cross section (Ca)
 |----------------------------------------------------|
 | COMMENTAIRES:                                      |
 |----------------------------------------------------|
 |   -Cross section / <b> should = efficiency         |
 |    is independant of the normalisation of dN/dx    |
 |   -The integral of the phase fct / 4 pi over all   |
 |    directions (solid angle) = 1.                   |
 |   -The volume coefficient (k) is equal to C * N    |
 |      = cross section * Number density              |
 |      typical units: [um^2]*[particles/cm^3] =      |
 |      [10^-3 km-1]                                  |
 |      N = M/(d*4/3*pi*r^3) where d is the density   |
 |      of particle, M is the mass per unit volume    |
 |      and 4/3*pi*r^3 is the average volume  of a    |
 |      particle.                                     |
 |      typical units:  M -> [ug/m^3], d -> [g/cm^3]  |
 |                      r -> [um]                     |
 |      Lidar ratio= 4 pi Qe / phase_fct(180)*Qs      |
 |----------------------------------------------------|
