 |--------|------------|
 | ANGLE  |  PHASE FCT |
 |--------|------------|
     0.00   65.785    
     1.00   63.844    
     2.00   58.498    
     3.00   50.943    
     4.00   42.560    
     5.00   34.457    
     6.00   27.287    
     7.00   21.310    
     8.00   16.534    
     9.00   12.834    
    10.00   10.032    
    11.00   7.9424    
    12.00   6.4009    
    13.00   5.2706    
    14.00   4.4434    
    15.00   3.8366    
    16.00   3.3890    
    17.00   3.0557    
    18.00   2.8040    
    19.00   2.6106    
    20.00   2.4591    
    21.00   2.3376    
    22.00   2.2379    
    23.00   2.1541    
    24.00   2.0822    
    25.00   2.0190    
    26.00   1.9624    
    27.00   1.9110    
    28.00   1.8637    
    29.00   1.8195    
    30.00   1.7779    
    31.00   1.7385    
    32.00   1.7007    
    33.00   1.6645    
    34.00   1.6295    
    35.00   1.5955    
    36.00   1.5626    
    37.00   1.5304    
    38.00   1.4990    
    39.00   1.4682    
    40.00   1.4380    
    41.00   1.4084    
    42.00   1.3792    
    43.00   1.3506    
    44.00   1.3224    
    45.00   1.2946    
    46.00   1.2673    
    47.00   1.2403    
    48.00   1.2138    
    49.00   1.1877    
    50.00   1.1620    
    51.00   1.1367    
    52.00   1.1118    
    53.00   1.0873    
    54.00   1.0633    
    55.00   1.0396    
    56.00   1.0164    
    57.00  0.99362    
    58.00  0.97127    
    59.00  0.94936    
    60.00  0.92790    
    61.00  0.90689    
    62.00  0.88634    
    63.00  0.86625    
    64.00  0.84663    
    65.00  0.82748    
    66.00  0.80882    
    67.00  0.79062    
    68.00  0.77291    
    69.00  0.75568    
    70.00  0.73894    
    71.00  0.72268    
    72.00  0.70691    
    73.00  0.69163    
    74.00  0.67683    
    75.00  0.66251    
    76.00  0.64868    
    77.00  0.63533    
    78.00  0.62245    
    79.00  0.61005    
    80.00  0.59813    
    81.00  0.58667    
    82.00  0.57567    
    83.00  0.56514    
    84.00  0.55505    
    85.00  0.54542    
    86.00  0.53623    
    87.00  0.52747    
    88.00  0.51914    
    89.00  0.51124    
    90.00  0.50375    
    91.00  0.49667    
    92.00  0.48999    
    93.00  0.48370    
    94.00  0.47780    
    95.00  0.47228    
    96.00  0.46713    
    97.00  0.46234    
    98.00  0.45790    
    99.00  0.45380    
   100.00  0.45004    
   101.00  0.44661    
   102.00  0.44350    
   103.00  0.44069    
   104.00  0.43818    
   105.00  0.43596    
   106.00  0.43403    
   107.00  0.43237    
   108.00  0.43097    
   109.00  0.42982    
   110.00  0.42892    
   111.00  0.42826    
   112.00  0.42783    
   113.00  0.42761    
   114.00  0.42761    
   115.00  0.42780    
   116.00  0.42819    
   117.00  0.42877    
   118.00  0.42952    
   119.00  0.43043    
   120.00  0.43151    
   121.00  0.43274    
   122.00  0.43410    
   123.00  0.43561    
   124.00  0.43724    
   125.00  0.43899    
   126.00  0.44085    
   127.00  0.44281    
   128.00  0.44487    
   129.00  0.44702    
   130.00  0.44925    
   131.00  0.45155    
   132.00  0.45392    
   133.00  0.45636    
   134.00  0.45885    
   135.00  0.46138    
   136.00  0.46396    
   137.00  0.46658    
   138.00  0.46923    
   139.00  0.47190    
   140.00  0.47460    
   141.00  0.47731    
   142.00  0.48003    
   143.00  0.48277    
   144.00  0.48551    
   145.00  0.48825    
   146.00  0.49099    
   147.00  0.49373    
   148.00  0.49646    
   149.00  0.49919    
   150.00  0.50190    
   151.00  0.50459    
   152.00  0.50725    
   153.00  0.50987    
   154.00  0.51244    
   155.00  0.51495    
   156.00  0.51738    
   157.00  0.51971    
   158.00  0.52192    
   159.00  0.52400    
   160.00  0.52593    
   161.00  0.52771    
   162.00  0.52932    
   163.00  0.53078    
   164.00  0.53209    
   165.00  0.53328    
   166.00  0.53439    
   167.00  0.53544    
   168.00  0.53648    
   169.00  0.53754    
   170.00  0.53865    
   171.00  0.53983    
   172.00  0.54107    
   173.00  0.54235    
   174.00  0.54365    
   175.00  0.54491    
   176.00  0.54607    
   177.00  0.54706    
   178.00  0.54782    
   179.00  0.54830    
   180.00  0.54846    
 |--------|------------|
0.340000     micron = Wavelength
0.364322     = Extinction efficiency (Q)
0.149238     = Scattering efficiency (Qs)
0.215084     = Absorption efficiency (Qa)
 55.9331     = Lidar ratio
0.352421E-02 micron^2 = <b> = Average surface area per particle
0.128395E-02 microns^2 = Extinction cross section (C)
0.525946E-03 microns^2 = Scattering cross section (Cs)
0.758002E-03 microns^2 = Absorption cross section (Ca)
 |----------------------------------------------------|
 | COMMENTAIRES:                                      |
 |----------------------------------------------------|
 |   -Cross section / <b> should = efficiency         |
 |    is independant of the normalisation of dN/dx    |
 |   -The integral of the phase fct / 4 pi over all   |
 |    directions (solid angle) = 1.                   |
 |   -The volume coefficient (k) is equal to C * N    |
 |      = cross section * Number density              |
 |      typical units: [um^2]*[particles/cm^3] =      |
 |      [10^-3 km-1]                                  |
 |      N = M/(d*4/3*pi*r^3) where d is the density   |
 |      of particle, M is the mass per unit volume    |
 |      and 4/3*pi*r^3 is the average volume  of a    |
 |      particle.                                     |
 |      typical units:  M -> [ug/m^3], d -> [g/cm^3]  |
 |                      r -> [um]                     |
 |      Lidar ratio= 4 pi Qe / phase_fct(180)*Qs      |
 |----------------------------------------------------|
