 |--------|------------|
 | ANGLE  |  PHASE FCT |
 |--------|------------|
     0.00   120.49    
     1.00   114.74    
     2.00   99.503    
     3.00   79.624    
     4.00   59.958    
     5.00   43.423    
     6.00   30.821    
     7.00   21.748    
     8.00   15.447    
     9.00   11.184    
    10.00   8.3406    
    11.00   6.4507    
    12.00   5.1901    
    13.00   4.3420    
    14.00   3.7607    
    15.00   3.3517    
    16.00   3.0557    
    17.00   2.8346    
    18.00   2.6632    
    19.00   2.5259    
    20.00   2.4128    
    21.00   2.3171    
    22.00   2.2341    
    23.00   2.1609    
    24.00   2.0954    
    25.00   2.0358    
    26.00   1.9810    
    27.00   1.9303    
    28.00   1.8828    
    29.00   1.8379    
    30.00   1.7954    
    31.00   1.7547    
    32.00   1.7157    
    33.00   1.6780    
    34.00   1.6416    
    35.00   1.6062    
    36.00   1.5716    
    37.00   1.5379    
    38.00   1.5049    
    39.00   1.4726    
    40.00   1.4408    
    41.00   1.4095    
    42.00   1.3788    
    43.00   1.3486    
    44.00   1.3188    
    45.00   1.2895    
    46.00   1.2606    
    47.00   1.2322    
    48.00   1.2042    
    49.00   1.1767    
    50.00   1.1496    
    51.00   1.1229    
    52.00   1.0967    
    53.00   1.0709    
    54.00   1.0456    
    55.00   1.0207    
    56.00  0.99632    
    57.00  0.97241    
    58.00  0.94898    
    59.00  0.92604    
    60.00  0.90359    
    61.00  0.88163    
    62.00  0.86018    
    63.00  0.83924    
    64.00  0.81880    
    65.00  0.79887    
    66.00  0.77946    
    67.00  0.76056    
    68.00  0.74219    
    69.00  0.72432    
    70.00  0.70698    
    71.00  0.69015    
    72.00  0.67383    
    73.00  0.65803    
    74.00  0.64274    
    75.00  0.62796    
    76.00  0.61368    
    77.00  0.59990    
    78.00  0.58661    
    79.00  0.57382    
    80.00  0.56151    
    81.00  0.54969    
    82.00  0.53833    
    83.00  0.52745    
    84.00  0.51702    
    85.00  0.50705    
    86.00  0.49752    
    87.00  0.48844    
    88.00  0.47978    
    89.00  0.47154    
    90.00  0.46372    
    91.00  0.45631    
    92.00  0.44929    
    93.00  0.44266    
    94.00  0.43641    
    95.00  0.43053    
    96.00  0.42501    
    97.00  0.41985    
    98.00  0.41502    
    99.00  0.41053    
   100.00  0.40637    
   101.00  0.40252    
   102.00  0.39897    
   103.00  0.39573    
   104.00  0.39277    
   105.00  0.39008    
   106.00  0.38767    
   107.00  0.38552    
   108.00  0.38361    
   109.00  0.38195    
   110.00  0.38052    
   111.00  0.37932    
   112.00  0.37833    
   113.00  0.37755    
   114.00  0.37697    
   115.00  0.37657    
   116.00  0.37636    
   117.00  0.37632    
   118.00  0.37645    
   119.00  0.37673    
   120.00  0.37716    
   121.00  0.37774    
   122.00  0.37845    
   123.00  0.37929    
   124.00  0.38024    
   125.00  0.38131    
   126.00  0.38248    
   127.00  0.38376    
   128.00  0.38512    
   129.00  0.38657    
   130.00  0.38810    
   131.00  0.38970    
   132.00  0.39137    
   133.00  0.39310    
   134.00  0.39488    
   135.00  0.39671    
   136.00  0.39858    
   137.00  0.40049    
   138.00  0.40244    
   139.00  0.40441    
   140.00  0.40640    
   141.00  0.40841    
   142.00  0.41043    
   143.00  0.41246    
   144.00  0.41449    
   145.00  0.41652    
   146.00  0.41855    
   147.00  0.42057    
   148.00  0.42259    
   149.00  0.42459    
   150.00  0.42658    
   151.00  0.42856    
   152.00  0.43053    
   153.00  0.43247    
   154.00  0.43440    
   155.00  0.43631    
   156.00  0.43819    
   157.00  0.44003    
   158.00  0.44182    
   159.00  0.44355    
   160.00  0.44520    
   161.00  0.44675    
   162.00  0.44819    
   163.00  0.44951    
   164.00  0.45069    
   165.00  0.45173    
   166.00  0.45265    
   167.00  0.45346    
   168.00  0.45419    
   169.00  0.45488    
   170.00  0.45554    
   171.00  0.45622    
   172.00  0.45694    
   173.00  0.45770    
   174.00  0.45849    
   175.00  0.45929    
   176.00  0.46005    
   177.00  0.46072    
   178.00  0.46124    
   179.00  0.46158    
   180.00  0.46170    
 |--------|------------|
0.630000     micron = Wavelength
0.422039     = Extinction efficiency (Q)
0.183518     = Scattering efficiency (Qs)
0.238521     = Absorption efficiency (Qa)
 62.5928     = Lidar ratio
0.151662E-01 micron^2 = <b> = Average surface area per particle
0.640075E-02 microns^2 = Extinction cross section (C)
0.278328E-02 microns^2 = Scattering cross section (Cs)
0.361747E-02 microns^2 = Absorption cross section (Ca)
 |----------------------------------------------------|
 | COMMENTAIRES:                                      |
 |----------------------------------------------------|
 |   -Cross section / <b> should = efficiency         |
 |    is independant of the normalisation of dN/dx    |
 |   -The integral of the phase fct / 4 pi over all   |
 |    directions (solid angle) = 1.                   |
 |   -The volume coefficient (k) is equal to C * N    |
 |      = cross section * Number density              |
 |      typical units: [um^2]*[particles/cm^3] =      |
 |      [10^-3 km-1]                                  |
 |      N = M/(d*4/3*pi*r^3) where d is the density   |
 |      of particle, M is the mass per unit volume    |
 |      and 4/3*pi*r^3 is the average volume  of a    |
 |      particle.                                     |
 |      typical units:  M -> [ug/m^3], d -> [g/cm^3]  |
 |                      r -> [um]                     |
 |      Lidar ratio= 4 pi Qe / phase_fct(180)*Qs      |
 |----------------------------------------------------|
