 |--------|------------|
 | ANGLE  |  PHASE FCT |
 |--------|------------|
     0.00   48.779    
     1.00   48.333    
     2.00   47.031    
     3.00   44.977    
     4.00   42.321    
     5.00   39.237    
     6.00   35.898    
     7.00   32.461    
     8.00   29.058    
     9.00   25.788    
    10.00   22.720    
    11.00   19.900    
    12.00   17.350    
    13.00   15.074    
    14.00   13.067    
    15.00   11.313    
    16.00   9.7929    
    17.00   8.4835    
    18.00   7.3618    
    19.00   6.4049    
    20.00   5.5912    
    21.00   4.9009    
    22.00   4.3161    
    23.00   3.8210    
    24.00   3.4017    
    25.00   3.0463    
    26.00   2.7444    
    27.00   2.4875    
    28.00   2.2680    
    29.00   2.0798    
    30.00   1.9176    
    31.00   1.7772    
    32.00   1.6550    
    33.00   1.5479    
    34.00   1.4534    
    35.00   1.3696    
    36.00   1.2948    
    37.00   1.2275    
    38.00   1.1667    
    39.00   1.1113    
    40.00   1.0606    
    41.00   1.0139    
    42.00  0.97077    
    43.00  0.93071    
    44.00  0.89335    
    45.00  0.85838    
    46.00  0.82556    
    47.00  0.79465    
    48.00  0.76549    
    49.00  0.73790    
    50.00  0.71177    
    51.00  0.68696    
    52.00  0.66338    
    53.00  0.64095    
    54.00  0.61958    
    55.00  0.59921    
    56.00  0.57977    
    57.00  0.56122    
    58.00  0.54350    
    59.00  0.52657    
    60.00  0.51038    
    61.00  0.49490    
    62.00  0.48011    
    63.00  0.46595    
    64.00  0.45241    
    65.00  0.43946    
    66.00  0.42707    
    67.00  0.41521    
    68.00  0.40387    
    69.00  0.39303    
    70.00  0.38266    
    71.00  0.37274    
    72.00  0.36327    
    73.00  0.35422    
    74.00  0.34558    
    75.00  0.33732    
    76.00  0.32945    
    77.00  0.32194    
    78.00  0.31478    
    79.00  0.30796    
    80.00  0.30147    
    81.00  0.29530    
    82.00  0.28944    
    83.00  0.28387    
    84.00  0.27859    
    85.00  0.27359    
    86.00  0.26886    
    87.00  0.26439    
    88.00  0.26017    
    89.00  0.25620    
    90.00  0.25247    
    91.00  0.24897    
    92.00  0.24569    
    93.00  0.24263    
    94.00  0.23979    
    95.00  0.23714    
    96.00  0.23470    
    97.00  0.23244    
    98.00  0.23038    
    99.00  0.22849    
   100.00  0.22678    
   101.00  0.22524    
   102.00  0.22386    
   103.00  0.22265    
   104.00  0.22159    
   105.00  0.22068    
   106.00  0.21991    
   107.00  0.21929    
   108.00  0.21880    
   109.00  0.21844    
   110.00  0.21822    
   111.00  0.21811    
   112.00  0.21813    
   113.00  0.21826    
   114.00  0.21850    
   115.00  0.21885    
   116.00  0.21931    
   117.00  0.21987    
   118.00  0.22053    
   119.00  0.22128    
   120.00  0.22213    
   121.00  0.22307    
   122.00  0.22410    
   123.00  0.22521    
   124.00  0.22641    
   125.00  0.22769    
   126.00  0.22905    
   127.00  0.23050    
   128.00  0.23203    
   129.00  0.23363    
   130.00  0.23532    
   131.00  0.23709    
   132.00  0.23893    
   133.00  0.24087    
   134.00  0.24288    
   135.00  0.24497    
   136.00  0.24716    
   137.00  0.24942    
   138.00  0.25176    
   139.00  0.25419    
   140.00  0.25669    
   141.00  0.25927    
   142.00  0.26191    
   143.00  0.26460    
   144.00  0.26733    
   145.00  0.27008    
   146.00  0.27283    
   147.00  0.27555    
   148.00  0.27821    
   149.00  0.28078    
   150.00  0.28320    
   151.00  0.28543    
   152.00  0.28744    
   153.00  0.28916    
   154.00  0.29057    
   155.00  0.29162    
   156.00  0.29227    
   157.00  0.29253    
   158.00  0.29238    
   159.00  0.29186    
   160.00  0.29101    
   161.00  0.28989    
   162.00  0.28860    
   163.00  0.28724    
   164.00  0.28596    
   165.00  0.28487    
   166.00  0.28412    
   167.00  0.28381    
   168.00  0.28406    
   169.00  0.28492    
   170.00  0.28641    
   171.00  0.28849    
   172.00  0.29110    
   173.00  0.29409    
   174.00  0.29730    
   175.00  0.30053    
   176.00  0.30356    
   177.00  0.30618    
   178.00  0.30820    
   179.00  0.30948    
   180.00  0.30991    
 |--------|------------|
0.546000     micron = Wavelength
0.181764     = Extinction efficiency (Q)
0.647694E-01 = Scattering efficiency (Qs)
0.116995     = Absorption efficiency (Qa)
 113.792     = Lidar ratio
0.272777E-02 micron^2 = <b> = Average surface area per particle
0.495811E-03 microns^2 = Extinction cross section (C)
0.176676E-03 microns^2 = Scattering cross section (Cs)
0.319135E-03 microns^2 = Absorption cross section (Ca)
 |----------------------------------------------------|
 | COMMENTAIRES:                                      |
 |----------------------------------------------------|
 |   -Cross section / <b> should = efficiency         |
 |    is independant of the normalisation of dN/dx    |
 |   -The integral of the phase fct / 4 pi over all   |
 |    directions (solid angle) = 1.                   |
 |   -The volume coefficient (k) is equal to C * N    |
 |      = cross section * Number density              |
 |      typical units: [um^2]*[particles/cm^3] =      |
 |      [10^-3 km-1]                                  |
 |      N = M/(d*4/3*pi*r^3) where d is the density   |
 |      of particle, M is the mass per unit volume    |
 |      and 4/3*pi*r^3 is the average volume  of a    |
 |      particle.                                     |
 |      typical units:  M -> [ug/m^3], d -> [g/cm^3]  |
 |                      r -> [um]                     |
 |      Lidar ratio= 4 pi Qe / phase_fct(180)*Qs      |
 |----------------------------------------------------|
