 |--------|------------|
 | ANGLE  |  PHASE FCT |
 |--------|------------|
     0.00   73.195    
     1.00   71.978    
     2.00   68.502    
     3.00   63.240    
     4.00   56.822    
     5.00   49.877    
     6.00   42.933    
     7.00   36.368    
     8.00   30.417    
     9.00   25.194    
    10.00   20.725    
    11.00   16.975    
    12.00   13.879    
    13.00   11.354    
    14.00   9.3150    
    15.00   7.6810    
    16.00   6.3789    
    17.00   5.3451    
    18.00   4.5261    
    19.00   3.8776    
    20.00   3.3635    
    21.00   2.9548    
    22.00   2.6286    
    23.00   2.3666    
    24.00   2.1547    
    25.00   1.9815    
    26.00   1.8387    
    27.00   1.7195    
    28.00   1.6187    
    29.00   1.5324    
    30.00   1.4576    
    31.00   1.3919    
    32.00   1.3334    
    33.00   1.2808    
    34.00   1.2330    
    35.00   1.1891    
    36.00   1.1486    
    37.00   1.1108    
    38.00   1.0754    
    39.00   1.0420    
    40.00   1.0105    
    41.00  0.98050    
    42.00  0.95198    
    43.00  0.92472    
    44.00  0.89865    
    45.00  0.87366    
    46.00  0.84965    
    47.00  0.82657    
    48.00  0.80435    
    49.00  0.78294    
    50.00  0.76231    
    51.00  0.74239    
    52.00  0.72316    
    53.00  0.70458    
    54.00  0.68664    
    55.00  0.66931    
    56.00  0.65254    
    57.00  0.63634    
    58.00  0.62067    
    59.00  0.60552    
    60.00  0.59088    
    61.00  0.57672    
    62.00  0.56304    
    63.00  0.54982    
    64.00  0.53705    
    65.00  0.52472    
    66.00  0.51281    
    67.00  0.50132    
    68.00  0.49024    
    69.00  0.47956    
    70.00  0.46927    
    71.00  0.45937    
    72.00  0.44984    
    73.00  0.44067    
    74.00  0.43187    
    75.00  0.42343    
    76.00  0.41533    
    77.00  0.40757    
    78.00  0.40014    
    79.00  0.39305    
    80.00  0.38628    
    81.00  0.37983    
    82.00  0.37368    
    83.00  0.36785    
    84.00  0.36231    
    85.00  0.35707    
    86.00  0.35212    
    87.00  0.34745    
    88.00  0.34306    
    89.00  0.33894    
    90.00  0.33509    
    91.00  0.33150    
    92.00  0.32816    
    93.00  0.32508    
    94.00  0.32224    
    95.00  0.31964    
    96.00  0.31727    
    97.00  0.31514    
    98.00  0.31322    
    99.00  0.31153    
   100.00  0.31004    
   101.00  0.30876    
   102.00  0.30769    
   103.00  0.30680    
   104.00  0.30611    
   105.00  0.30560    
   106.00  0.30527    
   107.00  0.30512    
   108.00  0.30513    
   109.00  0.30530    
   110.00  0.30563    
   111.00  0.30611    
   112.00  0.30674    
   113.00  0.30750    
   114.00  0.30840    
   115.00  0.30943    
   116.00  0.31059    
   117.00  0.31186    
   118.00  0.31325    
   119.00  0.31474    
   120.00  0.31634    
   121.00  0.31803    
   122.00  0.31982    
   123.00  0.32170    
   124.00  0.32366    
   125.00  0.32569    
   126.00  0.32780    
   127.00  0.32999    
   128.00  0.33223    
   129.00  0.33454    
   130.00  0.33691    
   131.00  0.33933    
   132.00  0.34181    
   133.00  0.34433    
   134.00  0.34690    
   135.00  0.34951    
   136.00  0.35217    
   137.00  0.35487    
   138.00  0.35761    
   139.00  0.36040    
   140.00  0.36323    
   141.00  0.36611    
   142.00  0.36903    
   143.00  0.37200    
   144.00  0.37502    
   145.00  0.37808    
   146.00  0.38119    
   147.00  0.38434    
   148.00  0.38753    
   149.00  0.39075    
   150.00  0.39397    
   151.00  0.39717    
   152.00  0.40033    
   153.00  0.40340    
   154.00  0.40636    
   155.00  0.40914    
   156.00  0.41170    
   157.00  0.41397    
   158.00  0.41592    
   159.00  0.41749    
   160.00  0.41866    
   161.00  0.41942    
   162.00  0.41978    
   163.00  0.41979    
   164.00  0.41952    
   165.00  0.41906    
   166.00  0.41855    
   167.00  0.41811    
   168.00  0.41789    
   169.00  0.41800    
   170.00  0.41856    
   171.00  0.41959    
   172.00  0.42112    
   173.00  0.42308    
   174.00  0.42535    
   175.00  0.42777    
   176.00  0.43015    
   177.00  0.43228    
   178.00  0.43397    
   179.00  0.43505    
   180.00  0.43542    
 |--------|------------|
0.690000     micron = Wavelength
0.227145     = Extinction efficiency (Q)
0.792829E-01 = Scattering efficiency (Qs)
0.147862     = Absorption efficiency (Qa)
 82.6839     = Lidar ratio
0.730526E-02 micron^2 = <b> = Average surface area per particle
0.165935E-02 microns^2 = Extinction cross section (C)
0.579183E-03 microns^2 = Scattering cross section (Cs)
0.108017E-02 microns^2 = Absorption cross section (Ca)
 |----------------------------------------------------|
 | COMMENTAIRES:                                      |
 |----------------------------------------------------|
 |   -Cross section / <b> should = efficiency         |
 |    is independant of the normalisation of dN/dx    |
 |   -The integral of the phase fct / 4 pi over all   |
 |    directions (solid angle) = 1.                   |
 |   -The volume coefficient (k) is equal to C * N    |
 |      = cross section * Number density              |
 |      typical units: [um^2]*[particles/cm^3] =      |
 |      [10^-3 km-1]                                  |
 |      N = M/(d*4/3*pi*r^3) where d is the density   |
 |      of particle, M is the mass per unit volume    |
 |      and 4/3*pi*r^3 is the average volume  of a    |
 |      particle.                                     |
 |      typical units:  M -> [ug/m^3], d -> [g/cm^3]  |
 |                      r -> [um]                     |
 |      Lidar ratio= 4 pi Qe / phase_fct(180)*Qs      |
 |----------------------------------------------------|
