 |--------|------------|
 | ANGLE  |  PHASE FCT |
 |--------|------------|
     0.00   62.174    
     1.00   60.772    
     2.00   56.839    
     3.00   51.079    
     4.00   44.361    
     5.00   37.475    
     6.00   30.982    
     7.00   25.208    
     8.00   20.290    
     9.00   16.232    
    10.00   12.966    
    11.00   10.385    
    12.00   8.3727    
    13.00   6.8203    
    14.00   5.6310    
    15.00   4.7235    
    16.00   4.0319    
    17.00   3.5045    
    18.00   3.1007    
    19.00   2.7895    
    20.00   2.5477    
    21.00   2.3576    
    22.00   2.2061    
    23.00   2.0834    
    24.00   1.9824    
    25.00   1.8976    
    26.00   1.8253    
    27.00   1.7623    
    28.00   1.7067    
    29.00   1.6567    
    30.00   1.6112    
    31.00   1.5692    
    32.00   1.5301    
    33.00   1.4934    
    34.00   1.4586    
    35.00   1.4254    
    36.00   1.3937    
    37.00   1.3631    
    38.00   1.3335    
    39.00   1.3050    
    40.00   1.2772    
    41.00   1.2501    
    42.00   1.2238    
    43.00   1.1980    
    44.00   1.1728    
    45.00   1.1482    
    46.00   1.1241    
    47.00   1.1004    
    48.00   1.0772    
    49.00   1.0544    
    50.00   1.0321    
    51.00   1.0102    
    52.00  0.98875    
    53.00  0.96768    
    54.00  0.94703    
    55.00  0.92678    
    56.00  0.90693    
    57.00  0.88748    
    58.00  0.86844    
    59.00  0.84980    
    60.00  0.83157    
    61.00  0.81375    
    62.00  0.79634    
    63.00  0.77933    
    64.00  0.76274    
    65.00  0.74657    
    66.00  0.73081    
    67.00  0.71547    
    68.00  0.70055    
    69.00  0.68604    
    70.00  0.67196    
    71.00  0.65830    
    72.00  0.64506    
    73.00  0.63224    
    74.00  0.61984    
    75.00  0.60786    
    76.00  0.59630    
    77.00  0.58516    
    78.00  0.57443    
    79.00  0.56411    
    80.00  0.55420    
    81.00  0.54470    
    82.00  0.53561    
    83.00  0.52691    
    84.00  0.51861    
    85.00  0.51070    
    86.00  0.50319    
    87.00  0.49605    
    88.00  0.48929    
    89.00  0.48291    
    90.00  0.47689    
    91.00  0.47124    
    92.00  0.46593    
    93.00  0.46099    
    94.00  0.45638    
    95.00  0.45211    
    96.00  0.44817    
    97.00  0.44455    
    98.00  0.44125    
    99.00  0.43826    
   100.00  0.43557    
   101.00  0.43317    
   102.00  0.43106    
   103.00  0.42923    
   104.00  0.42767    
   105.00  0.42637    
   106.00  0.42533    
   107.00  0.42454    
   108.00  0.42399    
   109.00  0.42367    
   110.00  0.42357    
   111.00  0.42369    
   112.00  0.42402    
   113.00  0.42455    
   114.00  0.42527    
   115.00  0.42618    
   116.00  0.42726    
   117.00  0.42851    
   118.00  0.42992    
   119.00  0.43148    
   120.00  0.43319    
   121.00  0.43504    
   122.00  0.43702    
   123.00  0.43912    
   124.00  0.44133    
   125.00  0.44365    
   126.00  0.44607    
   127.00  0.44859    
   128.00  0.45119    
   129.00  0.45388    
   130.00  0.45663    
   131.00  0.45945    
   132.00  0.46234    
   133.00  0.46528    
   134.00  0.46826    
   135.00  0.47129    
   136.00  0.47436    
   137.00  0.47747    
   138.00  0.48060    
   139.00  0.48376    
   140.00  0.48694    
   141.00  0.49014    
   142.00  0.49336    
   143.00  0.49659    
   144.00  0.49983    
   145.00  0.50308    
   146.00  0.50634    
   147.00  0.50959    
   148.00  0.51285    
   149.00  0.51609    
   150.00  0.51931    
   151.00  0.52250    
   152.00  0.52563    
   153.00  0.52870    
   154.00  0.53169    
   155.00  0.53456    
   156.00  0.53729    
   157.00  0.53986    
   158.00  0.54224    
   159.00  0.54442    
   160.00  0.54639    
   161.00  0.54814    
   162.00  0.54969    
   163.00  0.55106    
   164.00  0.55228    
   165.00  0.55341    
   166.00  0.55449    
   167.00  0.55558    
   168.00  0.55675    
   169.00  0.55804    
   170.00  0.55947    
   171.00  0.56107    
   172.00  0.56281    
   173.00  0.56466    
   174.00  0.56655    
   175.00  0.56840    
   176.00  0.57010    
   177.00  0.57156    
   178.00  0.57268    
   179.00  0.57338    
   180.00  0.57362    
 |--------|------------|
0.340000     micron = Wavelength
0.302837     = Extinction efficiency (Q)
0.115126     = Scattering efficiency (Qs)
0.187712     = Absorption efficiency (Qa)
 57.6261     = Lidar ratio
0.272779E-02 micron^2 = <b> = Average surface area per particle
0.826077E-03 microns^2 = Extinction cross section (C)
0.314039E-03 microns^2 = Scattering cross section (Cs)
0.512038E-03 microns^2 = Absorption cross section (Ca)
 |----------------------------------------------------|
 | COMMENTAIRES:                                      |
 |----------------------------------------------------|
 |   -Cross section / <b> should = efficiency         |
 |    is independant of the normalisation of dN/dx    |
 |   -The integral of the phase fct / 4 pi over all   |
 |    directions (solid angle) = 1.                   |
 |   -The volume coefficient (k) is equal to C * N    |
 |      = cross section * Number density              |
 |      typical units: [um^2]*[particles/cm^3] =      |
 |      [10^-3 km-1]                                  |
 |      N = M/(d*4/3*pi*r^3) where d is the density   |
 |      of particle, M is the mass per unit volume    |
 |      and 4/3*pi*r^3 is the average volume  of a    |
 |      particle.                                     |
 |      typical units:  M -> [ug/m^3], d -> [g/cm^3]  |
 |                      r -> [um]                     |
 |      Lidar ratio= 4 pi Qe / phase_fct(180)*Qs      |
 |----------------------------------------------------|
