 |--------|------------|
 | ANGLE  |  PHASE FCT |
 |--------|------------|
     0.00   60.102    
     1.00   59.363    
     2.00   57.226    
     3.00   53.914    
     4.00   49.737    
     5.00   45.032    
     6.00   40.112    
     7.00   35.234    
     8.00   30.592    
     9.00   26.309    
    10.00   22.454    
    11.00   19.056    
    12.00   16.107    
    13.00   13.584    
    14.00   11.449    
    15.00   9.6564    
    16.00   8.1635    
    17.00   6.9268    
    18.00   5.9069    
    19.00   5.0681    
    20.00   4.3795    
    21.00   3.8146    
    22.00   3.3510    
    23.00   2.9699    
    24.00   2.6558    
    25.00   2.3959    
    26.00   2.1798    
    27.00   1.9989    
    28.00   1.8466    
    29.00   1.7173    
    30.00   1.6066    
    31.00   1.5109    
    32.00   1.4274    
    33.00   1.3539    
    34.00   1.2886    
    35.00   1.2299    
    36.00   1.1769    
    37.00   1.1285    
    38.00   1.0840    
    39.00   1.0429    
    40.00   1.0047    
    41.00  0.96891    
    42.00  0.93533    
    43.00  0.90367    
    44.00  0.87372    
    45.00  0.84532    
    46.00  0.81832    
    47.00  0.79259    
    48.00  0.76804    
    49.00  0.74458    
    50.00  0.72214    
    51.00  0.70064    
    52.00  0.68003    
    53.00  0.66026    
    54.00  0.64129    
    55.00  0.62307    
    56.00  0.60557    
    57.00  0.58875    
    58.00  0.57259    
    59.00  0.55705    
    60.00  0.54210    
    61.00  0.52774    
    62.00  0.51393    
    63.00  0.50065    
    64.00  0.48789    
    65.00  0.47562    
    66.00  0.46382    
    67.00  0.45249    
    68.00  0.44161    
    69.00  0.43116    
    70.00  0.42114    
    71.00  0.41152    
    72.00  0.40229    
    73.00  0.39345    
    74.00  0.38499    
    75.00  0.37688    
    76.00  0.36914    
    77.00  0.36173    
    78.00  0.35466    
    79.00  0.34792    
    80.00  0.34150    
    81.00  0.33538    
    82.00  0.32957    
    83.00  0.32405    
    84.00  0.31883    
    85.00  0.31388    
    86.00  0.30920    
    87.00  0.30480    
    88.00  0.30065    
    89.00  0.29676    
    90.00  0.29312    
    91.00  0.28972    
    92.00  0.28655    
    93.00  0.28362    
    94.00  0.28091    
    95.00  0.27842    
    96.00  0.27614    
    97.00  0.27407    
    98.00  0.27220    
    99.00  0.27053    
   100.00  0.26905    
   101.00  0.26775    
   102.00  0.26664    
   103.00  0.26570    
   104.00  0.26494    
   105.00  0.26433    
   106.00  0.26389    
   107.00  0.26361    
   108.00  0.26347    
   109.00  0.26348    
   110.00  0.26363    
   111.00  0.26392    
   112.00  0.26434    
   113.00  0.26489    
   114.00  0.26555    
   115.00  0.26634    
   116.00  0.26723    
   117.00  0.26824    
   118.00  0.26935    
   119.00  0.27056    
   120.00  0.27187    
   121.00  0.27327    
   122.00  0.27476    
   123.00  0.27633    
   124.00  0.27799    
   125.00  0.27972    
   126.00  0.28153    
   127.00  0.28341    
   128.00  0.28536    
   129.00  0.28739    
   130.00  0.28948    
   131.00  0.29163    
   132.00  0.29385    
   133.00  0.29614    
   134.00  0.29849    
   135.00  0.30090    
   136.00  0.30338    
   137.00  0.30593    
   138.00  0.30854    
   139.00  0.31123    
   140.00  0.31398    
   141.00  0.31680    
   142.00  0.31969    
   143.00  0.32264    
   144.00  0.32565    
   145.00  0.32871    
   146.00  0.33181    
   147.00  0.33494    
   148.00  0.33806    
   149.00  0.34117    
   150.00  0.34421    
   151.00  0.34716    
   152.00  0.34997    
   153.00  0.35259    
   154.00  0.35497    
   155.00  0.35706    
   156.00  0.35882    
   157.00  0.36019    
   158.00  0.36116    
   159.00  0.36171    
   160.00  0.36186    
   161.00  0.36164    
   162.00  0.36110    
   163.00  0.36035    
   164.00  0.35948    
   165.00  0.35864    
   166.00  0.35795    
   167.00  0.35757    
   168.00  0.35760    
   169.00  0.35815    
   170.00  0.35927    
   171.00  0.36097    
   172.00  0.36320    
   173.00  0.36585    
   174.00  0.36877    
   175.00  0.37177    
   176.00  0.37463    
   177.00  0.37713    
   178.00  0.37908    
   179.00  0.38032    
   180.00  0.38075    
 |--------|------------|
0.546000     micron = Wavelength
0.202160     = Extinction efficiency (Q)
0.700099E-01 = Scattering efficiency (Qs)
0.132150     = Absorption efficiency (Qa)
 95.3035     = Lidar ratio
0.352421E-02 micron^2 = <b> = Average surface area per particle
0.712453E-03 microns^2 = Extinction cross section (C)
0.246729E-03 microns^2 = Scattering cross section (Cs)
0.465724E-03 microns^2 = Absorption cross section (Ca)
 |----------------------------------------------------|
 | COMMENTAIRES:                                      |
 |----------------------------------------------------|
 |   -Cross section / <b> should = efficiency         |
 |    is independant of the normalisation of dN/dx    |
 |   -The integral of the phase fct / 4 pi over all   |
 |    directions (solid angle) = 1.                   |
 |   -The volume coefficient (k) is equal to C * N    |
 |      = cross section * Number density              |
 |      typical units: [um^2]*[particles/cm^3] =      |
 |      [10^-3 km-1]                                  |
 |      N = M/(d*4/3*pi*r^3) where d is the density   |
 |      of particle, M is the mass per unit volume    |
 |      and 4/3*pi*r^3 is the average volume  of a    |
 |      particle.                                     |
 |      typical units:  M -> [ug/m^3], d -> [g/cm^3]  |
 |                      r -> [um]                     |
 |      Lidar ratio= 4 pi Qe / phase_fct(180)*Qs      |
 |----------------------------------------------------|
