 |--------|------------|
 | ANGLE  |  PHASE FCT |
 |--------|------------|
     0.00   145.31    
     1.00   133.89    
     2.00   105.32    
     3.00   72.161    
     4.00   44.938    
     5.00   27.158    
     6.00   16.961    
     7.00   11.274    
     8.00   8.0591    
     9.00   6.2606    
    10.00   5.2394    
    11.00   4.6078    
    12.00   4.1903    
    13.00   3.9064    
    14.00   3.6967    
    15.00   3.5284    
    16.00   3.3918    
    17.00   3.2783    
    18.00   3.1784    
    19.00   3.0888    
    20.00   3.0087    
    21.00   2.9351    
    22.00   2.8657    
    23.00   2.8003    
    24.00   2.7384    
    25.00   2.6784    
    26.00   2.6201    
    27.00   2.5636    
    28.00   2.5082    
    29.00   2.4537    
    30.00   2.4000    
    31.00   2.3472    
    32.00   2.2948    
    33.00   2.2430    
    34.00   2.1917    
    35.00   2.1410    
    36.00   2.0907    
    37.00   2.0409    
    38.00   1.9916    
    39.00   1.9428    
    40.00   1.8946    
    41.00   1.8469    
    42.00   1.7998    
    43.00   1.7533    
    44.00   1.7074    
    45.00   1.6621    
    46.00   1.6176    
    47.00   1.5737    
    48.00   1.5306    
    49.00   1.4882    
    50.00   1.4466    
    51.00   1.4057    
    52.00   1.3657    
    53.00   1.3265    
    54.00   1.2881    
    55.00   1.2505    
    56.00   1.2138    
    57.00   1.1779    
    58.00   1.1429    
    59.00   1.1088    
    60.00   1.0756    
    61.00   1.0432    
    62.00   1.0117    
    63.00  0.98105    
    64.00  0.95128    
    65.00  0.92238    
    66.00  0.89433    
    67.00  0.86713    
    68.00  0.84078    
    69.00  0.81525    
    70.00  0.79056    
    71.00  0.76668    
    72.00  0.74360    
    73.00  0.72132    
    74.00  0.69981    
    75.00  0.67906    
    76.00  0.65907    
    77.00  0.63981    
    78.00  0.62128    
    79.00  0.60345    
    80.00  0.58632    
    81.00  0.56986    
    82.00  0.55407    
    83.00  0.53891    
    84.00  0.52439    
    85.00  0.51048    
    86.00  0.49717    
    87.00  0.48444    
    88.00  0.47227    
    89.00  0.46066    
    90.00  0.44958    
    91.00  0.43901    
    92.00  0.42895    
    93.00  0.41937    
    94.00  0.41027    
    95.00  0.40163    
    96.00  0.39342    
    97.00  0.38565    
    98.00  0.37829    
    99.00  0.37133    
   100.00  0.36475    
   101.00  0.35855    
   102.00  0.35271    
   103.00  0.34722    
   104.00  0.34206    
   105.00  0.33723    
   106.00  0.33270    
   107.00  0.32848    
   108.00  0.32454    
   109.00  0.32087    
   110.00  0.31748    
   111.00  0.31434    
   112.00  0.31144    
   113.00  0.30878    
   114.00  0.30634    
   115.00  0.30412    
   116.00  0.30211    
   117.00  0.30029    
   118.00  0.29867    
   119.00  0.29722    
   120.00  0.29595    
   121.00  0.29484    
   122.00  0.29389    
   123.00  0.29309    
   124.00  0.29243    
   125.00  0.29191    
   126.00  0.29151    
   127.00  0.29124    
   128.00  0.29108    
   129.00  0.29103    
   130.00  0.29109    
   131.00  0.29124    
   132.00  0.29148    
   133.00  0.29180    
   134.00  0.29221    
   135.00  0.29269    
   136.00  0.29324    
   137.00  0.29385    
   138.00  0.29452    
   139.00  0.29524    
   140.00  0.29602    
   141.00  0.29684    
   142.00  0.29770    
   143.00  0.29859    
   144.00  0.29952    
   145.00  0.30047    
   146.00  0.30145    
   147.00  0.30244    
   148.00  0.30345    
   149.00  0.30447    
   150.00  0.30550    
   151.00  0.30654    
   152.00  0.30757    
   153.00  0.30861    
   154.00  0.30964    
   155.00  0.31066    
   156.00  0.31168    
   157.00  0.31268    
   158.00  0.31366    
   159.00  0.31462    
   160.00  0.31556    
   161.00  0.31648    
   162.00  0.31736    
   163.00  0.31820    
   164.00  0.31900    
   165.00  0.31975    
   166.00  0.32045    
   167.00  0.32111    
   168.00  0.32172    
   169.00  0.32228    
   170.00  0.32280    
   171.00  0.32328    
   172.00  0.32373    
   173.00  0.32414    
   174.00  0.32453    
   175.00  0.32487    
   176.00  0.32517    
   177.00  0.32542    
   178.00  0.32561    
   179.00  0.32572    
   180.00  0.32576    
 |--------|------------|
0.546000     micron = Wavelength
0.664421     = Extinction efficiency (Q)
0.339894     = Scattering efficiency (Qs)
0.324527     = Absorption efficiency (Qa)
 75.4062     = Lidar ratio
0.199775E-01 micron^2 = <b> = Average surface area per particle
0.132735E-01 microns^2 = Extinction cross section (C)
0.679022E-02 microns^2 = Scattering cross section (Cs)
0.648324E-02 microns^2 = Absorption cross section (Ca)
 |----------------------------------------------------|
 | COMMENTAIRES:                                      |
 |----------------------------------------------------|
 |   -Cross section / <b> should = efficiency         |
 |    is independant of the normalisation of dN/dx    |
 |   -The integral of the phase fct / 4 pi over all   |
 |    directions (solid angle) = 1.                   |
 |   -The volume coefficient (k) is equal to C * N    |
 |      = cross section * Number density              |
 |      typical units: [um^2]*[particles/cm^3] =      |
 |      [10^-3 km-1]                                  |
 |      N = M/(d*4/3*pi*r^3) where d is the density   |
 |      of particle, M is the mass per unit volume    |
 |      and 4/3*pi*r^3 is the average volume  of a    |
 |      particle.                                     |
 |      typical units:  M -> [ug/m^3], d -> [g/cm^3]  |
 |                      r -> [um]                     |
 |      Lidar ratio= 4 pi Qe / phase_fct(180)*Qs      |
 |----------------------------------------------------|
