 |--------|------------|
 | ANGLE  |  PHASE FCT |
 |--------|------------|
     0.00   157.99    
     1.00   147.18    
     2.00   119.67    
     3.00   86.507    
     4.00   57.499    
     5.00   36.754    
     6.00   23.529    
     7.00   15.453    
     8.00   10.589    
     9.00   7.7068    
    10.00   5.9962    
    11.00   4.9423    
    12.00   4.2673    
    13.00   3.8217    
    14.00   3.5095    
    15.00   3.2759    
    16.00   3.0954    
    17.00   2.9513    
    18.00   2.8305    
    19.00   2.7268    
    20.00   2.6370    
    21.00   2.5574    
    22.00   2.4850    
    23.00   2.4190    
    24.00   2.3583    
    25.00   2.3013    
    26.00   2.2473    
    27.00   2.1961    
    28.00   2.1471    
    29.00   2.0997    
    30.00   2.0538    
    31.00   2.0092    
    32.00   1.9656    
    33.00   1.9228    
    34.00   1.8809    
    35.00   1.8396    
    36.00   1.7990    
    37.00   1.7589    
    38.00   1.7194    
    39.00   1.6804    
    40.00   1.6418    
    41.00   1.6038    
    42.00   1.5663    
    43.00   1.5292    
    44.00   1.4927    
    45.00   1.4566    
    46.00   1.4211    
    47.00   1.3860    
    48.00   1.3515    
    49.00   1.3175    
    50.00   1.2841    
    51.00   1.2513    
    52.00   1.2190    
    53.00   1.1873    
    54.00   1.1562    
    55.00   1.1257    
    56.00   1.0959    
    57.00   1.0666    
    58.00   1.0380    
    59.00   1.0100    
    60.00  0.98273    
    61.00  0.95605    
    62.00  0.93003    
    63.00  0.90466    
    64.00  0.87995    
    65.00  0.85590    
    66.00  0.83250    
    67.00  0.80976    
    68.00  0.78768    
    69.00  0.76625    
    70.00  0.74547    
    71.00  0.72533    
    72.00  0.70582    
    73.00  0.68696    
    74.00  0.66871    
    75.00  0.65109    
    76.00  0.63408    
    77.00  0.61767    
    78.00  0.60186    
    79.00  0.58663    
    80.00  0.57198    
    81.00  0.55790    
    82.00  0.54438    
    83.00  0.53140    
    84.00  0.51895    
    85.00  0.50703    
    86.00  0.49563    
    87.00  0.48473    
    88.00  0.47432    
    89.00  0.46439    
    90.00  0.45493    
    91.00  0.44592    
    92.00  0.43736    
    93.00  0.42923    
    94.00  0.42153    
    95.00  0.41423    
    96.00  0.40734    
    97.00  0.40082    
    98.00  0.39469    
    99.00  0.38892    
   100.00  0.38350    
   101.00  0.37843    
   102.00  0.37368    
   103.00  0.36926    
   104.00  0.36514    
   105.00  0.36132    
   106.00  0.35779    
   107.00  0.35454    
   108.00  0.35155    
   109.00  0.34882    
   110.00  0.34634    
   111.00  0.34410    
   112.00  0.34209    
   113.00  0.34030    
   114.00  0.33871    
   115.00  0.33733    
   116.00  0.33614    
   117.00  0.33514    
   118.00  0.33431    
   119.00  0.33365    
   120.00  0.33315    
   121.00  0.33281    
   122.00  0.33260    
   123.00  0.33254    
   124.00  0.33260    
   125.00  0.33279    
   126.00  0.33309    
   127.00  0.33350    
   128.00  0.33402    
   129.00  0.33463    
   130.00  0.33533    
   131.00  0.33611    
   132.00  0.33698    
   133.00  0.33791    
   134.00  0.33891    
   135.00  0.33998    
   136.00  0.34109    
   137.00  0.34226    
   138.00  0.34347    
   139.00  0.34473    
   140.00  0.34601    
   141.00  0.34733    
   142.00  0.34868    
   143.00  0.35004    
   144.00  0.35143    
   145.00  0.35282    
   146.00  0.35422    
   147.00  0.35563    
   148.00  0.35704    
   149.00  0.35845    
   150.00  0.35986    
   151.00  0.36125    
   152.00  0.36264    
   153.00  0.36401    
   154.00  0.36537    
   155.00  0.36671    
   156.00  0.36803    
   157.00  0.36933    
   158.00  0.37060    
   159.00  0.37184    
   160.00  0.37305    
   161.00  0.37421    
   162.00  0.37531    
   163.00  0.37635    
   164.00  0.37732    
   165.00  0.37822    
   166.00  0.37905    
   167.00  0.37980    
   168.00  0.38049    
   169.00  0.38112    
   170.00  0.38171    
   171.00  0.38227    
   172.00  0.38281    
   173.00  0.38332    
   174.00  0.38382    
   175.00  0.38428    
   176.00  0.38471    
   177.00  0.38507    
   178.00  0.38536    
   179.00  0.38553    
   180.00  0.38560    
 |--------|------------|
0.620000     micron = Wavelength
0.544314     = Extinction efficiency (Q)
0.259996     = Scattering efficiency (Qs)
0.284318     = Absorption efficiency (Qa)
 68.2278     = Lidar ratio
0.199938E-01 micron^2 = <b> = Average surface area per particle
0.108829E-01 microns^2 = Extinction cross section (C)
0.519829E-02 microns^2 = Scattering cross section (Cs)
0.568459E-02 microns^2 = Absorption cross section (Ca)
 |----------------------------------------------------|
 | COMMENTAIRES:                                      |
 |----------------------------------------------------|
 |   -Cross section / <b> should = efficiency         |
 |    is independant of the normalisation of dN/dx    |
 |   -The integral of the phase fct / 4 pi over all   |
 |    directions (solid angle) = 1.                   |
 |   -The volume coefficient (k) is equal to C * N    |
 |      = cross section * Number density              |
 |      typical units: [um^2]*[particles/cm^3] =      |
 |      [10^-3 km-1]                                  |
 |      N = M/(d*4/3*pi*r^3) where d is the density   |
 |      of particle, M is the mass per unit volume    |
 |      and 4/3*pi*r^3 is the average volume  of a    |
 |      particle.                                     |
 |      typical units:  M -> [ug/m^3], d -> [g/cm^3]  |
 |                      r -> [um]                     |
 |      Lidar ratio= 4 pi Qe / phase_fct(180)*Qs      |
 |----------------------------------------------------|
