 |--------|------------|
 | ANGLE  |  PHASE FCT |
 |--------|------------|
     0.00   76.313    
     1.00   74.011    
     2.00   67.677    
     3.00   58.747    
     4.00   48.871    
     5.00   39.362    
     6.00   30.983    
     7.00   24.028    
     8.00   18.494    
     9.00   14.225    
    10.00   11.006    
    11.00   8.6152    
    12.00   6.8584    
    13.00   5.5756    
    14.00   4.6405    
    15.00   3.9575    
    16.00   3.4558    
    17.00   3.0839    
    18.00   2.8043    
    19.00   2.5908    
    20.00   2.4243    
    21.00   2.2918    
    22.00   2.1837    
    23.00   2.0936    
    24.00   2.0167    
    25.00   1.9497    
    26.00   1.8903    
    27.00   1.8367    
    28.00   1.7876    
    29.00   1.7422    
    30.00   1.6998    
    31.00   1.6598    
    32.00   1.6218    
    33.00   1.5855    
    34.00   1.5506    
    35.00   1.5170    
    36.00   1.4845    
    37.00   1.4529    
    38.00   1.4221    
    39.00   1.3921    
    40.00   1.3628    
    41.00   1.3341    
    42.00   1.3059    
    43.00   1.2783    
    44.00   1.2512    
    45.00   1.2246    
    46.00   1.1984    
    47.00   1.1727    
    48.00   1.1474    
    49.00   1.1225    
    50.00   1.0981    
    51.00   1.0741    
    52.00   1.0504    
    53.00   1.0272    
    54.00   1.0045    
    55.00  0.98210    
    56.00  0.96016    
    57.00  0.93864    
    58.00  0.91756    
    59.00  0.89692    
    60.00  0.87670    
    61.00  0.85693    
    62.00  0.83760    
    63.00  0.81873    
    64.00  0.80031    
    65.00  0.78233    
    66.00  0.76482    
    67.00  0.74777    
    68.00  0.73118    
    69.00  0.71505    
    70.00  0.69938    
    71.00  0.68417    
    72.00  0.66944    
    73.00  0.65516    
    74.00  0.64135    
    75.00  0.62800    
    76.00  0.61510    
    77.00  0.60267    
    78.00  0.59068    
    79.00  0.57915    
    80.00  0.56807    
    81.00  0.55742    
    82.00  0.54722    
    83.00  0.53746    
    84.00  0.52812    
    85.00  0.51921    
    86.00  0.51071    
    87.00  0.50263    
    88.00  0.49495    
    89.00  0.48768    
    90.00  0.48079    
    91.00  0.47430    
    92.00  0.46818    
    93.00  0.46243    
    94.00  0.45705    
    95.00  0.45203    
    96.00  0.44735    
    97.00  0.44301    
    98.00  0.43901    
    99.00  0.43533    
   100.00  0.43197    
   101.00  0.42892    
   102.00  0.42616    
   103.00  0.42370    
   104.00  0.42152    
   105.00  0.41961    
   106.00  0.41797    
   107.00  0.41658    
   108.00  0.41545    
   109.00  0.41455    
   110.00  0.41388    
   111.00  0.41344    
   112.00  0.41321    
   113.00  0.41319    
   114.00  0.41336    
   115.00  0.41373    
   116.00  0.41427    
   117.00  0.41499    
   118.00  0.41587    
   119.00  0.41691    
   120.00  0.41810    
   121.00  0.41942    
   122.00  0.42089    
   123.00  0.42247    
   124.00  0.42418    
   125.00  0.42599    
   126.00  0.42791    
   127.00  0.42993    
   128.00  0.43203    
   129.00  0.43422    
   130.00  0.43648    
   131.00  0.43881    
   132.00  0.44120    
   133.00  0.44365    
   134.00  0.44615    
   135.00  0.44868    
   136.00  0.45127    
   137.00  0.45388    
   138.00  0.45652    
   139.00  0.45918    
   140.00  0.46186    
   141.00  0.46455    
   142.00  0.46725    
   143.00  0.46996    
   144.00  0.47268    
   145.00  0.47539    
   146.00  0.47811    
   147.00  0.48082    
   148.00  0.48353    
   149.00  0.48623    
   150.00  0.48892    
   151.00  0.49160    
   152.00  0.49426    
   153.00  0.49690    
   154.00  0.49950    
   155.00  0.50204    
   156.00  0.50451    
   157.00  0.50690    
   158.00  0.50916    
   159.00  0.51129    
   160.00  0.51326    
   161.00  0.51505    
   162.00  0.51664    
   163.00  0.51804    
   164.00  0.51926    
   165.00  0.52031    
   166.00  0.52123    
   167.00  0.52207    
   168.00  0.52287    
   169.00  0.52369    
   170.00  0.52458    
   171.00  0.52557    
   172.00  0.52666    
   173.00  0.52786    
   174.00  0.52912    
   175.00  0.53039    
   176.00  0.53158    
   177.00  0.53263    
   178.00  0.53345    
   179.00  0.53398    
   180.00  0.53416    
 |--------|------------|
0.498000     micron = Wavelength
0.343791     = Extinction efficiency (Q)
0.137043     = Scattering efficiency (Qs)
0.206748     = Absorption efficiency (Qa)
 59.0171     = Lidar ratio
0.730526E-02 micron^2 = <b> = Average surface area per particle
0.251148E-02 microns^2 = Extinction cross section (C)
0.100113E-02 microns^2 = Scattering cross section (Cs)
0.151034E-02 microns^2 = Absorption cross section (Ca)
 |----------------------------------------------------|
 | COMMENTAIRES:                                      |
 |----------------------------------------------------|
 |   -Cross section / <b> should = efficiency         |
 |    is independant of the normalisation of dN/dx    |
 |   -The integral of the phase fct / 4 pi over all   |
 |    directions (solid angle) = 1.                   |
 |   -The volume coefficient (k) is equal to C * N    |
 |      = cross section * Number density              |
 |      typical units: [um^2]*[particles/cm^3] =      |
 |      [10^-3 km-1]                                  |
 |      N = M/(d*4/3*pi*r^3) where d is the density   |
 |      of particle, M is the mass per unit volume    |
 |      and 4/3*pi*r^3 is the average volume  of a    |
 |      particle.                                     |
 |      typical units:  M -> [ug/m^3], d -> [g/cm^3]  |
 |                      r -> [um]                     |
 |      Lidar ratio= 4 pi Qe / phase_fct(180)*Qs      |
 |----------------------------------------------------|
