 |--------|------------|
 | ANGLE  |  PHASE FCT |
 |--------|------------|
     0.00   55.789    
     1.00   55.036    
     2.00   52.867    
     3.00   49.526    
     4.00   45.353    
     5.00   40.706    
     6.00   35.909    
     7.00   31.219    
     8.00   26.819    
     9.00   22.819    
    10.00   19.274    
    11.00   16.194    
    12.00   13.562    
    13.00   11.344    
    14.00   9.4929    
    15.00   7.9624    
    16.00   6.7056    
    17.00   5.6790    
    18.00   4.8437    
    19.00   4.1659    
    20.00   3.6164    
    21.00   3.1713    
    22.00   2.8101    
    23.00   2.5164    
    24.00   2.2767    
    25.00   2.0801    
    26.00   1.9179    
    27.00   1.7831    
    28.00   1.6701    
    29.00   1.5744    
    30.00   1.4927    
    31.00   1.4220    
    32.00   1.3602    
    33.00   1.3056    
    34.00   1.2569    
    35.00   1.2129    
    36.00   1.1728    
    37.00   1.1359    
    38.00   1.1017    
    39.00   1.0698    
    40.00   1.0398    
    41.00   1.0115    
    42.00  0.98457    
    43.00  0.95895    
    44.00  0.93445    
    45.00  0.91095    
    46.00  0.88837    
    47.00  0.86662    
    48.00  0.84563    
    49.00  0.82536    
    50.00  0.80575    
    51.00  0.78677    
    52.00  0.76838    
    53.00  0.75055    
    54.00  0.73326    
    55.00  0.71647    
    56.00  0.70019    
    57.00  0.68439    
    58.00  0.66905    
    59.00  0.65417    
    60.00  0.63972    
    61.00  0.62570    
    62.00  0.61211    
    63.00  0.59892    
    64.00  0.58614    
    65.00  0.57375    
    66.00  0.56176    
    67.00  0.55014    
    68.00  0.53891    
    69.00  0.52805    
    70.00  0.51755    
    71.00  0.50742    
    72.00  0.49764    
    73.00  0.48822    
    74.00  0.47915    
    75.00  0.47042    
    76.00  0.46204    
    77.00  0.45399    
    78.00  0.44627    
    79.00  0.43887    
    80.00  0.43181    
    81.00  0.42506    
    82.00  0.41863    
    83.00  0.41251    
    84.00  0.40670    
    85.00  0.40119    
    86.00  0.39598    
    87.00  0.39106    
    88.00  0.38644    
    89.00  0.38210    
    90.00  0.37804    
    91.00  0.37425    
    92.00  0.37074    
    93.00  0.36749    
    94.00  0.36450    
    95.00  0.36177    
    96.00  0.35929    
    97.00  0.35706    
    98.00  0.35507    
    99.00  0.35331    
   100.00  0.35179    
   101.00  0.35048    
   102.00  0.34940    
   103.00  0.34853    
   104.00  0.34787    
   105.00  0.34742    
   106.00  0.34716    
   107.00  0.34709    
   108.00  0.34720    
   109.00  0.34750    
   110.00  0.34797    
   111.00  0.34861    
   112.00  0.34941    
   113.00  0.35037    
   114.00  0.35148    
   115.00  0.35273    
   116.00  0.35413    
   117.00  0.35565    
   118.00  0.35731    
   119.00  0.35909    
   120.00  0.36099    
   121.00  0.36301    
   122.00  0.36512    
   123.00  0.36735    
   124.00  0.36967    
   125.00  0.37208    
   126.00  0.37459    
   127.00  0.37718    
   128.00  0.37985    
   129.00  0.38261    
   130.00  0.38544    
   131.00  0.38834    
   132.00  0.39132    
   133.00  0.39436    
   134.00  0.39747    
   135.00  0.40065    
   136.00  0.40390    
   137.00  0.40722    
   138.00  0.41059    
   139.00  0.41404    
   140.00  0.41754    
   141.00  0.42109    
   142.00  0.42470    
   143.00  0.42835    
   144.00  0.43203    
   145.00  0.43572    
   146.00  0.43942    
   147.00  0.44310    
   148.00  0.44672    
   149.00  0.45028    
   150.00  0.45371    
   151.00  0.45700    
   152.00  0.46011    
   153.00  0.46299    
   154.00  0.46561    
   155.00  0.46795    
   156.00  0.46999    
   157.00  0.47172    
   158.00  0.47315    
   159.00  0.47430    
   160.00  0.47523    
   161.00  0.47599    
   162.00  0.47667    
   163.00  0.47738    
   164.00  0.47821    
   165.00  0.47929    
   166.00  0.48070    
   167.00  0.48253    
   168.00  0.48485    
   169.00  0.48769    
   170.00  0.49102    
   171.00  0.49480    
   172.00  0.49891    
   173.00  0.50323    
   174.00  0.50757    
   175.00  0.51173    
   176.00  0.51550    
   177.00  0.51868    
   178.00  0.52110    
   179.00  0.52260    
   180.00  0.52312    
 |--------|------------|
0.436000     micron = Wavelength
0.219045     = Extinction efficiency (Q)
0.775334E-01 = Scattering efficiency (Qs)
0.141511     = Absorption efficiency (Qa)
 67.8663     = Lidar ratio
0.259481E-02 micron^2 = <b> = Average surface area per particle
0.568381E-03 microns^2 = Extinction cross section (C)
0.201185E-03 microns^2 = Scattering cross section (Cs)
0.367196E-03 microns^2 = Absorption cross section (Ca)
 |----------------------------------------------------|
 | COMMENTAIRES:                                      |
 |----------------------------------------------------|
 |   -Cross section / <b> should = efficiency         |
 |    is independant of the normalisation of dN/dx    |
 |   -The integral of the phase fct / 4 pi over all   |
 |    directions (solid angle) = 1.                   |
 |   -The volume coefficient (k) is equal to C * N    |
 |      = cross section * Number density              |
 |      typical units: [um^2]*[particles/cm^3] =      |
 |      [10^-3 km-1]                                  |
 |      N = M/(d*4/3*pi*r^3) where d is the density   |
 |      of particle, M is the mass per unit volume    |
 |      and 4/3*pi*r^3 is the average volume  of a    |
 |      particle.                                     |
 |      typical units:  M -> [ug/m^3], d -> [g/cm^3]  |
 |                      r -> [um]                     |
 |      Lidar ratio= 4 pi Qe / phase_fct(180)*Qs      |
 |----------------------------------------------------|
