 |--------|------------|
 | ANGLE  |  PHASE FCT |
 |--------|------------|
     0.00   168.67    
     1.00   159.53    
     2.00   135.64    
     3.00   105.23    
     4.00   76.222    
     5.00   52.946    
     6.00   36.080    
     7.00   24.507    
     8.00   16.813    
     9.00   11.819    
    10.00   8.6133    
    11.00   6.5467    
    12.00   5.2004    
    13.00   4.3105    
    14.00   3.7058    
    15.00   3.2797    
    16.00   2.9696    
    17.00   2.7360    
    18.00   2.5528    
    19.00   2.4047    
    20.00   2.2823    
    21.00   2.1786    
    22.00   2.0889    
    23.00   2.0102    
    24.00   1.9405    
    25.00   1.8777    
    26.00   1.8207    
    27.00   1.7685    
    28.00   1.7202    
    29.00   1.6752    
    30.00   1.6329    
    31.00   1.5931    
    32.00   1.5552    
    33.00   1.5189    
    34.00   1.4841    
    35.00   1.4506    
    36.00   1.4182    
    37.00   1.3867    
    38.00   1.3561    
    39.00   1.3262    
    40.00   1.2970    
    41.00   1.2684    
    42.00   1.2404    
    43.00   1.2130    
    44.00   1.1860    
    45.00   1.1596    
    46.00   1.1335    
    47.00   1.1080    
    48.00   1.0829    
    49.00   1.0582    
    50.00   1.0339    
    51.00   1.0101    
    52.00  0.98671    
    53.00  0.96373    
    54.00  0.94119    
    55.00  0.91907    
    56.00  0.89739    
    57.00  0.87614    
    58.00  0.85533    
    59.00  0.83496    
    60.00  0.81504    
    61.00  0.79557    
    62.00  0.77654    
    63.00  0.75797    
    64.00  0.73986    
    65.00  0.72220    
    66.00  0.70501    
    67.00  0.68827    
    68.00  0.67199    
    69.00  0.65618    
    70.00  0.64082    
    71.00  0.62593    
    72.00  0.61149    
    73.00  0.59751    
    74.00  0.58398    
    75.00  0.57090    
    76.00  0.55828    
    77.00  0.54610    
    78.00  0.53436    
    79.00  0.52306    
    80.00  0.51219    
    81.00  0.50174    
    82.00  0.49173    
    83.00  0.48212    
    84.00  0.47293    
    85.00  0.46415    
    86.00  0.45576    
    87.00  0.44776    
    88.00  0.44015    
    89.00  0.43292    
    90.00  0.42606    
    91.00  0.41956    
    92.00  0.41342    
    93.00  0.40762    
    94.00  0.40217    
    95.00  0.39705    
    96.00  0.39225    
    97.00  0.38777    
    98.00  0.38360    
    99.00  0.37972    
   100.00  0.37614    
   101.00  0.37284    
   102.00  0.36982    
   103.00  0.36707    
   104.00  0.36457    
   105.00  0.36232    
   106.00  0.36032    
   107.00  0.35855    
   108.00  0.35700    
   109.00  0.35568    
   110.00  0.35456    
   111.00  0.35365    
   112.00  0.35293    
   113.00  0.35239    
   114.00  0.35204    
   115.00  0.35186    
   116.00  0.35184    
   117.00  0.35197    
   118.00  0.35226    
   119.00  0.35268    
   120.00  0.35324    
   121.00  0.35393    
   122.00  0.35474    
   123.00  0.35566    
   124.00  0.35669    
   125.00  0.35782    
   126.00  0.35905    
   127.00  0.36036    
   128.00  0.36175    
   129.00  0.36322    
   130.00  0.36476    
   131.00  0.36637    
   132.00  0.36803    
   133.00  0.36975    
   134.00  0.37151    
   135.00  0.37331    
   136.00  0.37516    
   137.00  0.37703    
   138.00  0.37893    
   139.00  0.38085    
   140.00  0.38279    
   141.00  0.38474    
   142.00  0.38671    
   143.00  0.38867    
   144.00  0.39064    
   145.00  0.39260    
   146.00  0.39455    
   147.00  0.39650    
   148.00  0.39843    
   149.00  0.40036    
   150.00  0.40226    
   151.00  0.40415    
   152.00  0.40602    
   153.00  0.40788    
   154.00  0.40972    
   155.00  0.41153    
   156.00  0.41332    
   157.00  0.41508    
   158.00  0.41680    
   159.00  0.41847    
   160.00  0.42007    
   161.00  0.42158    
   162.00  0.42300    
   163.00  0.42428    
   164.00  0.42544    
   165.00  0.42647    
   166.00  0.42736    
   167.00  0.42814    
   168.00  0.42883    
   169.00  0.42946    
   170.00  0.43007    
   171.00  0.43070    
   172.00  0.43136    
   173.00  0.43207    
   174.00  0.43282    
   175.00  0.43358    
   176.00  0.43432    
   177.00  0.43497    
   178.00  0.43550    
   179.00  0.43583    
   180.00  0.43595    
 |--------|------------|
0.740000     micron = Wavelength
0.422302     = Extinction efficiency (Q)
0.182500     = Scattering efficiency (Qs)
0.239801     = Absorption efficiency (Qa)
 66.7009     = Lidar ratio
0.200042E-01 micron^2 = <b> = Average surface area per particle
0.844783E-02 microns^2 = Extinction cross section (C)
0.365078E-02 microns^2 = Scattering cross section (Cs)
0.479705E-02 microns^2 = Absorption cross section (Ca)
 |----------------------------------------------------|
 | COMMENTAIRES:                                      |
 |----------------------------------------------------|
 |   -Cross section / <b> should = efficiency         |
 |    is independant of the normalisation of dN/dx    |
 |   -The integral of the phase fct / 4 pi over all   |
 |    directions (solid angle) = 1.                   |
 |   -The volume coefficient (k) is equal to C * N    |
 |      = cross section * Number density              |
 |      typical units: [um^2]*[particles/cm^3] =      |
 |      [10^-3 km-1]                                  |
 |      N = M/(d*4/3*pi*r^3) where d is the density   |
 |      of particle, M is the mass per unit volume    |
 |      and 4/3*pi*r^3 is the average volume  of a    |
 |      particle.                                     |
 |      typical units:  M -> [ug/m^3], d -> [g/cm^3]  |
 |                      r -> [um]                     |
 |      Lidar ratio= 4 pi Qe / phase_fct(180)*Qs      |
 |----------------------------------------------------|
