 |--------|------------|
 | ANGLE  |  PHASE FCT |
 |--------|------------|
     0.00   56.920    
     1.00   56.057    
     2.00   53.585    
     3.00   49.815    
     4.00   45.166    
     5.00   40.070    
     6.00   34.900    
     7.00   29.939    
     8.00   25.372    
     9.00   21.301    
    10.00   17.762    
    11.00   14.747    
    12.00   12.220    
    13.00   10.128    
    14.00   8.4151    
    15.00   7.0230    
    16.00   5.8989    
    17.00   4.9955    
    18.00   4.2713    
    19.00   3.6917    
    20.00   3.2279    
    21.00   2.8562    
    22.00   2.5575    
    23.00   2.3164    
    24.00   2.1207    
    25.00   1.9607    
    26.00   1.8287    
    27.00   1.7187    
    28.00   1.6261    
    29.00   1.5472    
    30.00   1.4792    
    31.00   1.4197    
    32.00   1.3672    
    33.00   1.3201    
    34.00   1.2776    
    35.00   1.2386    
    36.00   1.2027    
    37.00   1.1693    
    38.00   1.1380    
    39.00   1.1084    
    40.00   1.0804    
    41.00   1.0537    
    42.00   1.0281    
    43.00   1.0036    
    44.00  0.98001    
    45.00  0.95723    
    46.00  0.93522    
    47.00  0.91391    
    48.00  0.89324    
    49.00  0.87318    
    50.00  0.85369    
    51.00  0.83475    
    52.00  0.81632    
    53.00  0.79839    
    54.00  0.78093    
    55.00  0.76394    
    56.00  0.74738    
    57.00  0.73127    
    58.00  0.71558    
    59.00  0.70031    
    60.00  0.68544    
    61.00  0.67098    
    62.00  0.65691    
    63.00  0.64323    
    64.00  0.62995    
    65.00  0.61704    
    66.00  0.60451    
    67.00  0.59235    
    68.00  0.58056    
    69.00  0.56915    
    70.00  0.55809    
    71.00  0.54740    
    72.00  0.53707    
    73.00  0.52710    
    74.00  0.51748    
    75.00  0.50821    
    76.00  0.49929    
    77.00  0.49071    
    78.00  0.48248    
    79.00  0.47460    
    80.00  0.46704    
    81.00  0.45982    
    82.00  0.45294    
    83.00  0.44638    
    84.00  0.44014    
    85.00  0.43422    
    86.00  0.42862    
    87.00  0.42333    
    88.00  0.41835    
    89.00  0.41367    
    90.00  0.40930    
    91.00  0.40521    
    92.00  0.40142    
    93.00  0.39791    
    94.00  0.39468    
    95.00  0.39173    
    96.00  0.38905    
    97.00  0.38663    
    98.00  0.38447    
    99.00  0.38257    
   100.00  0.38091    
   101.00  0.37950    
   102.00  0.37832    
   103.00  0.37738    
   104.00  0.37666    
   105.00  0.37615    
   106.00  0.37587    
   107.00  0.37578    
   108.00  0.37590    
   109.00  0.37621    
   110.00  0.37671    
   111.00  0.37739    
   112.00  0.37825    
   113.00  0.37927    
   114.00  0.38046    
   115.00  0.38180    
   116.00  0.38330    
   117.00  0.38494    
   118.00  0.38671    
   119.00  0.38862    
   120.00  0.39065    
   121.00  0.39280    
   122.00  0.39506    
   123.00  0.39744    
   124.00  0.39991    
   125.00  0.40248    
   126.00  0.40514    
   127.00  0.40789    
   128.00  0.41072    
   129.00  0.41363    
   130.00  0.41661    
   131.00  0.41967    
   132.00  0.42278    
   133.00  0.42597    
   134.00  0.42921    
   135.00  0.43252    
   136.00  0.43588    
   137.00  0.43929    
   138.00  0.44276    
   139.00  0.44629    
   140.00  0.44986    
   141.00  0.45348    
   142.00  0.45714    
   143.00  0.46083    
   144.00  0.46456    
   145.00  0.46830    
   146.00  0.47205    
   147.00  0.47578    
   148.00  0.47947    
   149.00  0.48311    
   150.00  0.48666    
   151.00  0.49010    
   152.00  0.49338    
   153.00  0.49647    
   154.00  0.49935    
   155.00  0.50198    
   156.00  0.50435    
   157.00  0.50644    
   158.00  0.50825    
   159.00  0.50980    
   160.00  0.51113    
   161.00  0.51229    
   162.00  0.51333    
   163.00  0.51436    
   164.00  0.51545    
   165.00  0.51670    
   166.00  0.51821    
   167.00  0.52005    
   168.00  0.52227    
   169.00  0.52491    
   170.00  0.52796    
   171.00  0.53138    
   172.00  0.53507    
   173.00  0.53894    
   174.00  0.54280    
   175.00  0.54651    
   176.00  0.54987    
   177.00  0.55270    
   178.00  0.55485    
   179.00  0.55619    
   180.00  0.55664    
 |--------|------------|
0.410000     micron = Wavelength
0.235155     = Extinction efficiency (Q)
0.847624E-01 = Scattering efficiency (Qs)
0.150393     = Absorption efficiency (Qa)
 62.6300     = Lidar ratio
0.259482E-02 micron^2 = <b> = Average surface area per particle
0.610185E-03 microns^2 = Extinction cross section (C)
0.219943E-03 microns^2 = Scattering cross section (Cs)
0.390242E-03 microns^2 = Absorption cross section (Ca)
 |----------------------------------------------------|
 | COMMENTAIRES:                                      |
 |----------------------------------------------------|
 |   -Cross section / <b> should = efficiency         |
 |    is independant of the normalisation of dN/dx    |
 |   -The integral of the phase fct / 4 pi over all   |
 |    directions (solid angle) = 1.                   |
 |   -The volume coefficient (k) is equal to C * N    |
 |      = cross section * Number density              |
 |      typical units: [um^2]*[particles/cm^3] =      |
 |      [10^-3 km-1]                                  |
 |      N = M/(d*4/3*pi*r^3) where d is the density   |
 |      of particle, M is the mass per unit volume    |
 |      and 4/3*pi*r^3 is the average volume  of a    |
 |      particle.                                     |
 |      typical units:  M -> [ug/m^3], d -> [g/cm^3]  |
 |                      r -> [um]                     |
 |      Lidar ratio= 4 pi Qe / phase_fct(180)*Qs      |
 |----------------------------------------------------|
