#            Optical Properties of Aerosols and Clouds (OPAC) 3.1
#           ------------------------------------------------------
# waso                        : 
#  1 components
#  8 relative humidities
# 19 wavelengths
#----------------------------------------------------------------------------
# RH  COMP NUMBER    VOLUME    MASS      DENSITY  NUM.MIX  VOL.MIX   MAS.MIX
# [%]     [1/cm^3]  [um^3/m^3] [ug/m^3]  [g/cm^3] RATIO    RATIO     RATIO
#----------------------------------------------------------------------------
#  0. waso 1.000E+00 7.453E+02 1.341E-03 1.80    1.000E+00 1.000E+00 1.000E+00
# 50. waso 1.000E+00 1.407E+03 1.997E-03 1.42    1.000E+00 1.000E+00 1.000E+00
# 70. waso 1.000E+00 1.811E+03 2.408E-03 1.33    1.000E+00 1.000E+00 1.000E+00
# 80. waso 1.000E+00 2.241E+03 2.846E-03 1.27    1.000E+00 1.000E+00 1.000E+00
# 90. waso 1.000E+00 3.296E+03 3.889E-03 1.18    1.000E+00 1.000E+00 1.000E+00
# 95. waso 1.000E+00 4.968E+03 5.564E-03 1.12    1.000E+00 1.000E+00 1.000E+00
# 98. waso 1.000E+00 8.435E+03 9.025E-03 1.07    1.000E+00 1.000E+00 1.000E+00
# 99. waso 1.000E+00 1.191E+04 1.250E-02 1.05    1.000E+00 1.000E+00 1.000E+00
#----------------------------------------------------------------------------
# only particles up to   7.5 micrometer are considered for mass
#============================================================================
#  0.% relative humidity 
# wavel.    ext.coef  sca.coef  abs.coef  ref.real  ref.imag  op.depth
#  [um]      [1/km]    [1/km]    [1/km]                               
 2.500E-01 9.520E-06 7.959E-06 1.561E-06 1.530E+00-3.000E-02 0.000E+00
 3.000E-01 8.182E-06 7.767E-06 4.151E-07 1.530E+00-8.000E-03 0.000E+00
 3.500E-01 7.003E-06 6.780E-06 2.227E-07 1.530E+00-5.000E-03 0.000E+00
 4.000E-01 6.011E-06 5.822E-06 1.892E-07 1.530E+00-5.000E-03 0.000E+00
 4.500E-01 5.180E-06 5.017E-06 1.631E-07 1.530E+00-5.000E-03 0.000E+00
 5.000E-01 4.484E-06 4.341E-06 1.425E-07 1.530E+00-5.000E-03 0.000E+00
 5.500E-01 3.905E-06 3.755E-06 1.502E-07 1.530E+00-6.000E-03 0.000E+00
 6.000E-01 3.413E-06 3.279E-06 1.339E-07 1.530E+00-6.000E-03 0.000E+00
 6.500E-01 3.003E-06 2.863E-06 1.398E-07 1.530E+00-7.000E-03 0.000E+00
 7.000E-01 2.649E-06 2.522E-06 1.265E-07 1.530E+00-7.000E-03 0.000E+00
 7.500E-01 2.356E-06 2.217E-06 1.392E-07 1.530E+00-8.500E-03 0.000E+00
 8.000E-01 2.050E-06 1.901E-06 1.485E-07 1.520E+00-1.000E-02 0.000E+00
 9.000E-01 1.660E-06 1.497E-06 1.633E-07 1.520E+00-1.300E-02 0.000E+00
 1.000E+00 1.366E-06 1.198E-06 1.680E-07 1.520E+00-1.550E-02 0.000E+00
 1.250E+00 8.558E-07 7.042E-07 1.515E-07 1.510E+00-1.900E-02 0.000E+00
 1.500E+00 5.937E-07 4.530E-07 1.406E-07 1.510E+00-2.250E-02 0.000E+00
 1.750E+00 3.587E-07 2.684E-07 9.036E-08 1.470E+00-1.750E-02 0.000E+00
 2.000E+00 1.913E-07 1.558E-07 3.550E-08 1.420E+00-8.000E-03 0.000E+00
 2.500E+00 1.228E-07 8.215E-08 4.070E-08 1.420E+00-1.200E-02 0.000E+00
 ----------------------------------------------------------------------------
 Angstrom coefficients calculated at 350 nm and 500 nm:
 0.125E+01 : alpha
 0.189E-05 : beta
 Angstrom coefficients calculated at 500 nm and 800 nm:
 0.167E+01 : alpha
 0.141E-05 : beta
 Visibility: 258.76 [km]
#----------------------------------------------------------------------------
# 50.% relative humidity 
# wavel.    ext.coef  sca.coef  abs.coef  ref.real  ref.imag  op.depth
#  [um]      [1/km]    [1/km]    [1/km]                               
 2.500E-01 1.511E-05 1.347E-05 1.635E-06 1.451E+00-1.589E-02 0.000E+00
 3.000E-01 1.301E-05 1.261E-05 4.072E-07 1.445E+00-4.238E-03 0.000E+00
 3.500E-01 1.119E-05 1.098E-05 2.166E-07 1.442E+00-2.649E-03 0.000E+00
 4.000E-01 9.654E-06 9.469E-06 1.851E-07 1.440E+00-2.649E-03 0.000E+00
 4.500E-01 8.369E-06 8.208E-06 1.604E-07 1.439E+00-2.649E-03 0.000E+00
 5.000E-01 7.281E-06 7.141E-06 1.408E-07 1.438E+00-2.649E-03 0.000E+00
 5.500E-01 6.366E-06 6.217E-06 1.495E-07 1.437E+00-3.179E-03 0.000E+00
 6.000E-01 5.593E-06 5.459E-06 1.339E-07 1.437E+00-3.179E-03 0.000E+00
 6.500E-01 4.940E-06 4.799E-06 1.407E-07 1.436E+00-3.709E-03 0.000E+00
 7.000E-01 4.382E-06 4.254E-06 1.280E-07 1.436E+00-3.709E-03 0.000E+00
 7.500E-01 3.906E-06 3.764E-06 1.418E-07 1.436E+00-4.503E-03 0.000E+00
 8.000E-01 3.435E-06 3.282E-06 1.524E-07 1.430E+00-5.298E-03 0.000E+00
 9.000E-01 2.789E-06 2.619E-06 1.693E-07 1.430E+00-6.887E-03 0.000E+00
 1.000E+00 2.295E-06 2.120E-06 1.755E-07 1.429E+00-8.213E-03 0.000E+00
 1.250E+00 1.446E-06 1.285E-06 1.604E-07 1.422E+00-1.007E-02 0.000E+00
 1.500E+00 9.935E-07 8.424E-07 1.511E-07 1.421E+00-1.201E-02 0.000E+00
 1.750E+00 6.211E-07 5.244E-07 9.662E-08 1.396E+00-9.318E-03 0.000E+00
 2.000E+00 3.688E-07 3.268E-07 4.203E-08 1.366E+00-4.756E-03 0.000E+00
 2.500E+00 2.073E-07 1.586E-07 4.867E-08 1.345E+00-7.176E-03 0.000E+00
 ----------------------------------------------------------------------------
 Angstrom coefficients calculated at 350 nm and 500 nm:
 0.120E+01 : alpha
 0.316E-05 : beta
 Angstrom coefficients calculated at 500 nm and 800 nm:
 0.160E+01 : alpha
 0.240E-05 : beta
 Visibility: 258.70 [km]
#----------------------------------------------------------------------------
# 70.% relative humidity 
# wavel.    ext.coef  sca.coef  abs.coef  ref.real  ref.imag  op.depth
#  [um]      [1/km]    [1/km]    [1/km]                               
 2.500E-01 1.835E-05 1.669E-05 1.662E-06 1.431E+00-1.235E-02 0.000E+00
 3.000E-01 1.587E-05 1.546E-05 4.065E-07 1.423E+00-3.293E-03 0.000E+00
 3.500E-01 1.371E-05 1.350E-05 2.157E-07 1.420E+00-2.058E-03 0.000E+00
 4.000E-01 1.188E-05 1.169E-05 1.847E-07 1.418E+00-2.058E-03 0.000E+00
 4.500E-01 1.034E-05 1.017E-05 1.601E-07 1.416E+00-2.058E-03 0.000E+00
 5.000E-01 9.024E-06 8.883E-06 1.409E-07 1.415E+00-2.058E-03 0.000E+00
 5.500E-01 7.913E-06 7.763E-06 1.499E-07 1.414E+00-2.470E-03 0.000E+00
 6.000E-01 6.973E-06 6.838E-06 1.345E-07 1.413E+00-2.470E-03 0.000E+00
 6.500E-01 6.174E-06 6.032E-06 1.416E-07 1.413E+00-2.881E-03 0.000E+00
 7.000E-01 5.493E-06 5.364E-06 1.290E-07 1.413E+00-2.881E-03 0.000E+00
 7.500E-01 4.905E-06 4.762E-06 1.431E-07 1.412E+00-3.499E-03 0.000E+00
 8.000E-01 4.334E-06 4.180E-06 1.542E-07 1.408E+00-4.116E-03 0.000E+00
 9.000E-01 3.528E-06 3.356E-06 1.717E-07 1.407E+00-5.351E-03 0.000E+00
 1.000E+00 2.909E-06 2.730E-06 1.784E-07 1.406E+00-6.381E-03 0.000E+00
 1.250E+00 1.841E-06 1.677E-06 1.636E-07 1.400E+00-7.825E-03 0.000E+00
 1.500E+00 1.264E-06 1.109E-06 1.551E-07 1.399E+00-9.379E-03 0.000E+00
 1.750E+00 8.021E-07 7.031E-07 9.897E-08 1.378E+00-7.262E-03 0.000E+00
 2.000E+00 4.945E-07 4.488E-07 4.567E-08 1.353E+00-3.940E-03 0.000E+00
 2.500E+00 2.660E-07 2.130E-07 5.300E-08 1.326E+00-5.963E-03 0.000E+00
 ----------------------------------------------------------------------------
 Angstrom coefficients calculated at 350 nm and 500 nm:
 0.117E+01 : alpha
 0.400E-05 : beta
 Angstrom coefficients calculated at 500 nm and 800 nm:
 0.156E+01 : alpha
 0.306E-05 : beta
 Visibility: 258.67 [km]
#----------------------------------------------------------------------------
# 80.% relative humidity 
# wavel.    ext.coef  sca.coef  abs.coef  ref.real  ref.imag  op.depth
#  [um]      [1/km]    [1/km]    [1/km]                               
 2.500E-01 2.169E-05 2.000E-05 1.685E-06 1.418E+00-9.976E-03 0.000E+00
 3.000E-01 1.885E-05 1.844E-05 4.059E-07 1.409E+00-2.660E-03 0.000E+00
 3.500E-01 1.637E-05 1.615E-05 2.160E-07 1.405E+00-1.663E-03 0.000E+00
 4.000E-01 1.423E-05 1.405E-05 1.842E-07 1.403E+00-1.663E-03 0.000E+00
 4.500E-01 1.244E-05 1.228E-05 1.603E-07 1.401E+00-1.663E-03 0.000E+00
 5.000E-01 1.090E-05 1.076E-05 1.411E-07 1.400E+00-1.663E-03 0.000E+00
 5.500E-01 9.584E-06 9.434E-06 1.503E-07 1.399E+00-1.995E-03 0.000E+00
 6.000E-01 8.472E-06 8.337E-06 1.352E-07 1.398E+00-1.995E-03 0.000E+00
 6.500E-01 7.521E-06 7.378E-06 1.425E-07 1.397E+00-2.328E-03 0.000E+00
 7.000E-01 6.711E-06 6.581E-06 1.299E-07 1.397E+00-2.328E-03 0.000E+00
 7.500E-01 6.004E-06 5.860E-06 1.443E-07 1.397E+00-2.827E-03 0.000E+00
 8.000E-01 5.326E-06 5.170E-06 1.558E-07 1.393E+00-3.325E-03 0.000E+00
 9.000E-01 4.347E-06 4.174E-06 1.738E-07 1.392E+00-4.323E-03 0.000E+00
 1.000E+00 3.592E-06 3.411E-06 1.809E-07 1.391E+00-5.156E-03 0.000E+00
 1.250E+00 2.286E-06 2.120E-06 1.663E-07 1.385E+00-6.324E-03 0.000E+00
 1.500E+00 1.571E-06 1.412E-06 1.586E-07 1.384E+00-7.616E-03 0.000E+00
 1.750E+00 1.010E-06 9.090E-07 1.010E-07 1.365E+00-5.886E-03 0.000E+00
 2.000E+00 6.406E-07 5.911E-07 4.946E-08 1.344E+00-3.395E-03 0.000E+00
 2.500E+00 3.338E-07 2.764E-07 5.746E-08 1.314E+00-5.152E-03 0.000E+00
 ----------------------------------------------------------------------------
 Angstrom coefficients calculated at 350 nm and 500 nm:
 0.114E+01 : alpha
 0.495E-05 : beta
 Angstrom coefficients calculated at 500 nm and 800 nm:
 0.152E+01 : alpha
 0.379E-05 : beta
 Visibility: 258.63 [km]
#----------------------------------------------------------------------------
# 90.% relative humidity 
# wavel.    ext.coef  sca.coef  abs.coef  ref.real  ref.imag  op.depth
#  [um]      [1/km]    [1/km]    [1/km]                               
 2.500E-01 2.945E-05 2.772E-05 1.724E-06 1.400E+00-6.783E-03 0.000E+00
 3.000E-01 2.589E-05 2.548E-05 4.078E-07 1.390E+00-1.809E-03 0.000E+00
 3.500E-01 2.272E-05 2.250E-05 2.159E-07 1.385E+00-1.130E-03 0.000E+00
 4.000E-01 1.994E-05 1.975E-05 1.848E-07 1.382E+00-1.130E-03 0.000E+00
 4.500E-01 1.758E-05 1.742E-05 1.609E-07 1.381E+00-1.130E-03 0.000E+00
 5.000E-01 1.552E-05 1.538E-05 1.422E-07 1.379E+00-1.130E-03 0.000E+00
 5.500E-01 1.374E-05 1.359E-05 1.518E-07 1.378E+00-1.357E-03 0.000E+00
 6.000E-01 1.222E-05 1.209E-05 1.367E-07 1.377E+00-1.357E-03 0.000E+00
 6.500E-01 1.091E-05 1.077E-05 1.444E-07 1.376E+00-1.583E-03 0.000E+00
 7.000E-01 9.794E-06 9.662E-06 1.319E-07 1.376E+00-1.583E-03 0.000E+00
 7.500E-01 8.801E-06 8.654E-06 1.468E-07 1.375E+00-1.922E-03 0.000E+00
 8.000E-01 7.865E-06 7.706E-06 1.588E-07 1.372E+00-2.261E-03 0.000E+00
 9.000E-01 6.464E-06 6.287E-06 1.778E-07 1.371E+00-2.939E-03 0.000E+00
 1.000E+00 5.372E-06 5.186E-06 1.855E-07 1.371E+00-3.507E-03 0.000E+00
 1.250E+00 3.464E-06 3.293E-06 1.711E-07 1.365E+00-4.302E-03 0.000E+00
 1.500E+00 2.392E-06 2.226E-06 1.655E-07 1.364E+00-5.242E-03 0.000E+00
 1.750E+00 1.574E-06 1.469E-06 1.048E-07 1.348E+00-4.034E-03 0.000E+00
 2.000E+00 1.043E-06 9.842E-07 5.857E-08 1.332E+00-2.660E-03 0.000E+00
 2.500E+00 5.208E-07 4.526E-07 6.817E-08 1.297E+00-4.060E-03 0.000E+00
 ----------------------------------------------------------------------------
 Angstrom coefficients calculated at 350 nm and 500 nm:
 0.107E+01 : alpha
 0.740E-05 : beta
 Angstrom coefficients calculated at 500 nm and 800 nm:
 0.145E+01 : alpha
 0.570E-05 : beta
 Visibility: 258.54 [km]
#----------------------------------------------------------------------------
# 95.% relative humidity 
# wavel.    ext.coef  sca.coef  abs.coef  ref.real  ref.imag  op.depth
#  [um]      [1/km]    [1/km]    [1/km]                               
 2.500E-01 4.076E-05 3.900E-05 1.761E-06 1.387E+00-4.500E-03 0.000E+00
 3.000E-01 3.637E-05 3.596E-05 4.082E-07 1.376E+00-1.200E-03 0.000E+00
 3.500E-01 3.236E-05 3.214E-05 2.172E-07 1.371E+00-7.500E-04 0.000E+00
 4.000E-01 2.874E-05 2.856E-05 1.860E-07 1.368E+00-7.500E-04 0.000E+00
 4.500E-01 2.561E-05 2.545E-05 1.625E-07 1.366E+00-7.500E-04 0.000E+00
 5.000E-01 2.283E-05 2.269E-05 1.435E-07 1.364E+00-7.500E-04 0.000E+00
 5.500E-01 2.038E-05 2.023E-05 1.537E-07 1.363E+00-9.000E-04 0.000E+00
 6.000E-01 1.828E-05 1.814E-05 1.387E-07 1.362E+00-9.000E-04 0.000E+00
 6.500E-01 1.643E-05 1.629E-05 1.468E-07 1.361E+00-1.050E-03 0.000E+00
 7.000E-01 1.485E-05 1.472E-05 1.343E-07 1.361E+00-1.050E-03 0.000E+00
 7.500E-01 1.342E-05 1.327E-05 1.497E-07 1.360E+00-1.275E-03 0.000E+00
 8.000E-01 1.209E-05 1.193E-05 1.623E-07 1.358E+00-1.500E-03 0.000E+00
 9.000E-01 1.003E-05 9.849E-06 1.821E-07 1.357E+00-1.950E-03 0.000E+00
 1.000E+00 8.401E-06 8.210E-06 1.905E-07 1.356E+00-2.327E-03 0.000E+00
 1.250E+00 5.516E-06 5.340E-06 1.764E-07 1.351E+00-2.857E-03 0.000E+00
 1.500E+00 3.846E-06 3.672E-06 1.740E-07 1.349E+00-3.545E-03 0.000E+00
 1.750E+00 2.593E-06 2.483E-06 1.094E-07 1.337E+00-2.710E-03 0.000E+00
 2.000E+00 1.781E-06 1.708E-06 7.293E-08 1.323E+00-2.135E-03 0.000E+00
 2.500E+00 8.666E-07 7.816E-07 8.499E-08 1.285E+00-3.279E-03 0.000E+00
 ----------------------------------------------------------------------------
 Angstrom coefficients calculated at 350 nm and 500 nm:
 0.978E+00 : alpha
 0.116E-04 : beta
 Angstrom coefficients calculated at 500 nm and 800 nm:
 0.135E+01 : alpha
 0.894E-05 : beta
 Visibility: 258.39 [km]
#----------------------------------------------------------------------------
# 98.% relative humidity 
# wavel.    ext.coef  sca.coef  abs.coef  ref.real  ref.imag  op.depth
#  [um]      [1/km]    [1/km]    [1/km]                               
 2.500E-01 6.157E-05 5.977E-05 1.806E-06 1.377E+00-2.650E-03 0.000E+00
 3.000E-01 5.616E-05 5.575E-05 4.131E-07 1.365E+00-7.068E-04 0.000E+00
 3.500E-01 5.096E-05 5.074E-05 2.193E-07 1.360E+00-4.417E-04 0.000E+00
 4.000E-01 4.605E-05 4.586E-05 1.876E-07 1.356E+00-4.417E-04 0.000E+00
 4.500E-01 4.167E-05 4.150E-05 1.647E-07 1.354E+00-4.417E-04 0.000E+00
 5.000E-01 3.766E-05 3.751E-05 1.459E-07 1.352E+00-4.417E-04 0.000E+00
 5.500E-01 3.404E-05 3.388E-05 1.564E-07 1.350E+00-5.301E-04 0.000E+00
 6.000E-01 3.088E-05 3.074E-05 1.414E-07 1.349E+00-5.301E-04 0.000E+00
 6.500E-01 2.805E-05 2.790E-05 1.500E-07 1.349E+00-6.184E-04 0.000E+00
 7.000E-01 2.560E-05 2.546E-05 1.375E-07 1.349E+00-6.185E-04 0.000E+00
 7.500E-01 2.334E-05 2.318E-05 1.537E-07 1.348E+00-7.511E-04 0.000E+00
 8.000E-01 2.125E-05 2.108E-05 1.669E-07 1.346E+00-8.836E-04 0.000E+00
 9.000E-01 1.788E-05 1.769E-05 1.880E-07 1.345E+00-1.149E-03 0.000E+00
 1.000E+00 1.516E-05 1.496E-05 1.972E-07 1.344E+00-1.372E-03 0.000E+00
 1.250E+00 1.023E-05 1.005E-05 1.836E-07 1.340E+00-1.687E-03 0.000E+00
 1.500E+00 7.265E-06 7.077E-06 1.881E-07 1.338E+00-2.170E-03 0.000E+00
 1.750E+00 5.043E-06 4.926E-06 1.168E-07 1.327E+00-1.637E-03 0.000E+00
 2.000E+00 3.591E-06 3.488E-06 1.029E-07 1.316E+00-1.710E-03 0.000E+00
 2.500E+00 1.730E-06 1.610E-06 1.201E-07 1.275E+00-2.646E-03 0.000E+00
 ----------------------------------------------------------------------------
 Angstrom coefficients calculated at 350 nm and 500 nm:
 0.848E+00 : alpha
 0.209E-04 : beta
 Angstrom coefficients calculated at 500 nm and 800 nm:
 0.122E+01 : alpha
 0.162E-04 : beta
 Visibility: 258.09 [km]
#----------------------------------------------------------------------------
# 99.% relative humidity 
# wavel.    ext.coef  sca.coef  abs.coef  ref.real  ref.imag  op.depth
#  [um]      [1/km]    [1/km]    [1/km]                               
 2.500E-01 7.993E-05 7.811E-05 1.817E-06 1.373E+00-1.877E-03 0.000E+00
 3.000E-01 7.410E-05 7.369E-05 4.164E-07 1.360E+00-5.006E-04 0.000E+00
 3.500E-01 6.810E-05 6.788E-05 2.206E-07 1.355E+00-3.129E-04 0.000E+00
 4.000E-01 6.230E-05 6.212E-05 1.894E-07 1.351E+00-3.129E-04 0.000E+00
 4.500E-01 5.697E-05 5.680E-05 1.665E-07 1.349E+00-3.129E-04 0.000E+00
 5.000E-01 5.198E-05 5.184E-05 1.476E-07 1.347E+00-3.129E-04 0.000E+00
 5.500E-01 4.740E-05 4.724E-05 1.586E-07 1.345E+00-3.754E-04 0.000E+00
 6.000E-01 4.334E-05 4.319E-05 1.433E-07 1.344E+00-3.754E-04 0.000E+00
 6.500E-01 3.966E-05 3.951E-05 1.523E-07 1.343E+00-4.380E-04 0.000E+00
 7.000E-01 3.644E-05 3.630E-05 1.398E-07 1.343E+00-4.380E-04 0.000E+00
 7.500E-01 3.342E-05 3.327E-05 1.563E-07 1.343E+00-5.320E-04 0.000E+00
 8.000E-01 3.063E-05 3.046E-05 1.699E-07 1.341E+00-6.258E-04 0.000E+00
 9.000E-01 2.605E-05 2.586E-05 1.918E-07 1.340E+00-8.139E-04 0.000E+00
 1.000E+00 2.229E-05 2.209E-05 2.016E-07 1.339E+00-9.726E-04 0.000E+00
 1.250E+00 1.535E-05 1.516E-05 1.884E-07 1.335E+00-1.197E-03 0.000E+00
 1.500E+00 1.105E-05 1.085E-05 2.003E-07 1.333E+00-1.595E-03 0.000E+00
 1.750E+00 7.811E-06 7.688E-06 1.228E-07 1.323E+00-1.189E-03 0.000E+00
 2.000E+00 5.671E-06 5.537E-06 1.335E-07 1.313E+00-1.532E-03 0.000E+00
 2.500E+00 2.742E-06 2.586E-06 1.557E-07 1.271E+00-2.382E-03 0.000E+00
 ----------------------------------------------------------------------------
 Angstrom coefficients calculated at 350 nm and 500 nm:
 0.757E+00 : alpha
 0.308E-04 : beta
 Angstrom coefficients calculated at 500 nm and 800 nm:
 0.113E+01 : alpha
 0.238E-04 : beta
 Visibility: 257.79 [km]
